# Format: McCode with text headers
# URL: http://www.mccode.org
# Creator: McXtrace 1.7 - Jan. 23, 2022
# Instrument: TestSAXS.instr
# Ncount: 25000
# Trace: no
# Gravitation: no
# Seed: 1647934461
# Directory: toto_11
# Nodes: 4
# Param: DistanceFromSourceToFirstPinhole=0.05
# Param: DistanceFromSourceToSecondPinhole=0.7
# Param: DistanceFromSecondPinholeToSample=0.6
# Param: DistanceFromSampleToDetector=0.48
# Param: RadiusOfDetector=0.1
# Param: Lambda=1.54
# Param: DLambda=0.01
# Param: SAMPLE=11
# Date: Fri Feb 25 14:22:18 2022 (1645795338)
# type: array_1d(2000)
# Source: TestSAXS (TestSAXS.instr)
# component: QMonitor
# position: 0 0 1.66
# title: QMonitor - Distribution in q (Radially averaged)
# Ncount: 100000
# filename: QDetector.dat
# statistics: X0=0.0876726; dX=0.0948427;
# signal: Min=0; Max=5.10585e-12; Mean=1.94717e-13;
# values: 3.89433e-10 1.52081e-11 45460
# xvar: q
# yvar: (I,I_err)
# xlabel: q [1 / AA]
# ylabel: I(q)
# xlimits: 0 0.836539
# variables: q I I_err N
0.0002091347366 0 0 0 
0.0006274042098 0 0 0 
0.001045673683 0 0 0 
0.001463943156 0 0 0 
0.001882212629 0 0 0 
0.002300482103 0 0 0 
0.002718751576 0 0 0 
0.003137021049 0 0 0 
0.003555290522 0 0 0 
0.003973559996 0 0 0 
0.004391829469 0 0 0 
0.004810098942 0 0 0 
0.005228368415 0 0 0 
0.005646637888 0 0 0 
0.006064907362 0 0 0 
0.006483176835 0 0 0 
0.006901446308 0 0 0 
0.007319715781 0 0 0 
0.007737985254 0 0 0 
0.008156254728 0 0 0 
0.008574524201 0 0 0 
0.008992793674 0 0 0 
0.009411063147 3.129900637e-12 3.129900637e-12 1 
0.009829332621 2.990229325e-12 2.990229325e-12 1 
0.01024760209 0 0 0 
0.01066587157 0 0 0 
0.01108414104 2.652272912e-12 2.652272912e-12 1 
0.01150241051 5.105854416e-12 3.610386329e-12 2 
0.01192067999 0 0 0 
0.01233894946 2.364143606e-12 2.364143606e-12 1 
0.01275721893 0 0 0 
0.01317548841 2.220913926e-12 2.220913926e-12 1 
0.01359375788 2.154958677e-12 2.154958677e-12 1 
0.01401202735 0 0 0 
0.01443029683 2.032030906e-12 2.032030906e-12 1 
0.0148485663 1.963515271e-12 1.963515271e-12 1 
0.01526683577 1.911368575e-12 1.911368575e-12 1 
0.01568510525 3.724022779e-12 2.633304613e-12 2 
0.01610337472 1.791888111e-12 1.791888111e-12 1 
0.01652164419 1.751512731e-12 1.751512731e-12 1 
0.01693991367 1.696225625e-12 1.696225625e-12 1 
0.01735818314 0 0 0 
0.01777645261 3.2450633e-12 2.29470449e-12 2 
0.01819472208 0 0 0 
0.01861299156 1.554342265e-12 1.554342265e-12 1 
0.01903126103 3.024986476e-12 2.139024724e-12 2 
0.0194495305 1.483565946e-12 1.483565946e-12 1 
0.01986779998 1.430206681e-12 1.430206681e-12 1 
0.02028606945 1.417233714e-12 1.417233714e-12 1 
0.02070433892 2.770984168e-12 1.959386525e-12 2 
0.0211226084 0 0 0 
0.02154087787 0 0 0 
0.02195914734 2.603071171e-12 1.840728886e-12 2 
0.02237741682 0 0 0 
0.02279568629 1.241019761e-12 1.241019761e-12 1 
0.02321395576 2.469205113e-12 1.745996131e-12 2 
0.02363222524 3.613192739e-12 2.086090737e-12 3 
0.02405049471 1.193850063e-12 1.193850063e-12 1 
0.02446876418 3.486699778e-12 2.01305536e-12 3 
0.02488703366 1.134406516e-12 1.134406516e-12 1 
0.02530530313 0 0 0 
0.0257235726 1.083754449e-12 1.083754449e-12 1 
0.02614184208 1.088111447e-12 1.088111447e-12 1 
0.02656011155 0 0 0 
0.02697838102 4.174844216e-12 2.087464705e-12 4 
0.0273966505 2.066552366e-12 1.461312785e-12 2 
0.02781491997 0 0 0 
0.02823318944 0 0 0 
0.02865145892 1.953103382e-12 1.381068212e-12 2 
0.02906972839 2.89622592e-12 1.672170839e-12 3 
0.02948799786 0 0 0 
0.02990626733 0 0 0 
0.03032453681 9.265408905e-13 9.265408905e-13 1 
0.03074280628 9.072496671e-13 9.072496671e-13 1 
0.03116107575 3.56327982e-12 1.781676509e-12 4 
0.03157934523 8.860195913e-13 8.860195913e-13 1 
0.0319976147 8.586217067e-13 8.586217067e-13 1 
0.03241588417 4.250139935e-12 1.900803228e-12 5 
0.03283415365 3.331288474e-12 1.665681586e-12 4 
0.03325242312 8.207618227e-13 8.207618227e-13 1 
0.03367069259 2.436919312e-12 1.407141749e-12 3 
0.03408896207 0 0 0 
0.03450723154 2.37908344e-12 1.373576938e-12 3 
0.03492550101 1.558959429e-12 1.102356392e-12 2 
0.03534377049 4.629685632e-12 1.890111305e-12 6 
0.03576203996 1.513900209e-12 1.070524778e-12 2 
0.03618030943 0 0 0 
0.03659857891 3.671489721e-12 1.6420104e-12 5 
0.03701684838 1.475638682e-12 1.043441686e-12 2 
0.03743511785 0 0 0 
0.03785338733 1.408123081e-12 9.957275662e-13 2 
0.0382716568 6.949118645e-13 6.949118645e-13 1 
0.03868992627 1.376185682e-12 9.731119102e-13 2 
0.03910819575 6.75162056e-13 6.75162056e-13 1 
0.03952646522 3.367435827e-12 1.505981245e-12 5 
0.03994473469 0 0 0 
0.04036300417 0 0 0 
0.04078127364 6.441368214e-13 6.441368214e-13 1 
0.04119954311 0 0 0 
0.04161781258 6.316991304e-13 6.316991304e-13 1 
0.04203608206 0 0 0 
0.04245435153 2.473446855e-12 1.23689434e-12 4 
0.042872621 6.109270612e-13 6.109270612e-13 1 
0.04329089048 1.799974399e-12 1.039271363e-12 3 
0.04370915995 1.780355438e-12 1.027933684e-12 3 
0.04412742942 5.806799596e-13 5.806799596e-13 1 
0.0445456989 2.897930908e-12 1.296082509e-12 5 
0.04496396837 1.155001899e-12 8.168631961e-13 2 
0.04538223784 5.664185972e-13 5.664185972e-13 1 
0.04580050732 5.636042135e-13 5.636042135e-13 1 
0.04621877679 1.668374042e-12 9.633413469e-13 3 
0.04663704626 2.726916487e-12 1.219604848e-12 5 
0.04705531574 2.148308485e-12 1.074177845e-12 4 
0.04747358521 1.078160531e-12 7.624551211e-13 2 
0.04789185468 1.065712591e-12 7.53673805e-13 2 
0.04831012416 1.580297351e-12 9.124009205e-13 3 
0.04872839363 1.566367397e-12 9.044427492e-13 3 
0.0491466631 2.555663675e-12 1.142980592e-12 5 
0.04956493258 2.063682361e-12 1.031868126e-12 4 
0.04998320205 1.010927845e-12 7.1500902e-13 2 
0.05040147152 2.484819804e-12 1.111357201e-12 5 
0.050819741 1.985149732e-12 9.927113723e-13 4 
0.05123801047 1.92462217e-12 9.623810593e-13 4 
0.05165627994 1.442492607e-12 8.328669702e-13 3 
0.05207454942 1.418230121e-12 8.189849991e-13 3 
0.05249281889 1.410220288e-12 8.143268023e-13 3 
0.05291108836 9.114032793e-13 6.444660479e-13 2 
0.05332935783 9.152761395e-13 6.477238078e-13 2 
0.05374762731 1.352657836e-12 7.811008275e-13 3 
0.05416589678 9.143327666e-13 6.46530962e-13 2 
0.05458416625 2.672763504e-12 1.091394866e-12 6 
0.05500243573 1.309503957e-12 7.564478588e-13 3 
0.0554207052 4.389953094e-13 4.389953094e-13 1 
0.05583897467 1.272647693e-12 7.347815457e-13 3 
0.05625724415 8.359893235e-13 5.912899035e-13 2 
0.05667551362 8.326748014e-13 5.889612596e-13 2 
0.05709378309 8.406269159e-13 5.944215028e-13 2 
0.05751205257 8.270593e-13 5.848709871e-13 2 
0.05793032204 2.032336244e-12 9.089889356e-13 5 
0.05834859151 1.205208591e-12 6.958297255e-13 3 
0.05876686099 1.609288294e-12 8.047018702e-13 4 
0.05918513046 0 0 0 
0.05960339993 3.79536075e-13 3.79536075e-13 1 
0.06002166941 1.941079969e-12 8.681116346e-13 5 
0.06043993888 7.720957083e-13 5.461682123e-13 2 
0.06085820835 3.755936535e-13 3.755936535e-13 1 
0.06127647783 1.861274989e-12 8.324273959e-13 5 
0.0616947473 1.491639267e-12 7.458664939e-13 4 
0.06211301677 1.098754096e-12 6.344829413e-13 3 
0.06253128625 1.465508741e-12 7.32828608e-13 4 
0.06294955572 2.121123723e-12 8.659891012e-13 6 
0.06336782519 1.073275779e-12 6.196905477e-13 3 
0.06378609467 1.038937524e-12 5.998609697e-13 3 
0.06420436414 6.82778066e-13 4.829740281e-13 2 
0.06462263361 0 0 0 
0.06504090308 3.463698785e-13 3.463698785e-13 1 
0.06545917256 1.706707405e-12 7.633497725e-13 5 
0.06587744203 1.33130948e-12 6.657599602e-13 4 
0.0662957115 1.32950153e-12 6.647600565e-13 4 
0.06671398098 1.620204406e-12 7.246256347e-13 5 
0.06713225045 1.616055505e-12 7.228240419e-13 5 
0.06755051992 9.785280361e-13 5.65066538e-13 3 
0.0679687894 1.264517099e-12 6.325606703e-13 4 
0.06838705887 1.241357542e-12 6.207134008e-13 4 
0.06880532834 1.257796876e-12 6.29008015e-13 4 
0.06922359782 1.853304747e-12 7.56773306e-13 6 
0.06964186729 1.222495375e-12 6.114983912e-13 4 
0.07006013676 8.973522747e-13 5.181774653e-13 3 
0.07047840624 6.006672794e-13 4.247512407e-13 2 
0.07089667571 5.975606439e-13 4.22620373e-13 2 
0.07131494518 2.973927444e-13 2.973927444e-13 1 
0.07173321466 8.747117379e-13 5.050913173e-13 3 
0.07215148413 1.432115823e-12 6.405748101e-13 5 
0.0725697536 8.712125771e-13 5.0304156e-13 3 
0.07298802308 1.149184711e-12 5.746059278e-13 4 
0.07340629255 1.39826946e-12 6.253432898e-13 5 
0.07382456202 5.583351839e-13 3.948739955e-13 2 
0.0742428315 2.711468471e-13 2.711468471e-13 1 
0.07466110097 1.359615462e-12 6.082654739e-13 5 
0.07507937044 1.880202755e-12 7.110601951e-13 7 
0.07549763992 1.042339391e-12 5.212346047e-13 4 
0.07591590939 1.047259065e-12 5.237457919e-13 4 
0.07633417886 1.313126311e-12 5.87370337e-13 5 
0.07675244833 7.679759005e-13 4.434429736e-13 3 
0.07717071781 1.54907104e-12 6.325325511e-13 6 
0.07758898728 1.014628051e-12 5.074949757e-13 4 
0.07800725675 7.632208837e-13 4.408102735e-13 3 
0.07842552623 7.448989102e-13 4.30190412e-13 3 
0.0788437957 7.377431508e-13 4.259463743e-13 3 
0.07926206517 1.223762493e-12 5.474056434e-13 5 
0.07968033465 9.867448766e-13 4.934590486e-13 4 
0.08009860412 7.238051084e-13 4.180431844e-13 3 
0.08051687359 9.57740302e-13 4.790765027e-13 4 
0.08093514307 1.161800253e-12 5.198994339e-13 5 
0.08135341254 4.583490282e-13 3.241492981e-13 2 
0.08177168201 9.16276066e-13 4.585405033e-13 4 
0.08218995149 2.29601815e-13 2.29601815e-13 1 
0.08260822096 1.12787853e-12 5.047157817e-13 5 
0.08302649043 1.125554449e-12 5.034314971e-13 5 
0.08344475991 6.661999495e-13 3.846716517e-13 3 
0.08386302938 1.314552987e-12 5.370090669e-13 6 
0.08428129885 4.208082607e-13 2.976044749e-13 2 
0.08469956833 8.81967638e-13 4.410728185e-13 4 
0.0851178378 8.5401956e-13 4.274895463e-13 4 
0.08553610727 6.26549118e-13 3.617629345e-13 3 
0.08595437675 1.017502173e-12 4.550706417e-13 5 
0.08637264622 1.010103393e-12 4.518530896e-13 5 
0.08679091569 1.022986116e-12 4.576523075e-13 5 
0.08720918517 1.01981906e-12 4.561176087e-13 5 
0.08762745464 1.427003136e-12 5.394481201e-13 7 
0.08804572411 1.223755763e-12 4.997856862e-13 6 
0.08846399358 1.207821624e-12 4.931929006e-13 6 
0.08888226306 1.734888832e-12 5.783442607e-13 9 
0.08930053253 1.156905692e-12 4.724563606e-13 6 
0.089718802 1.152244156e-12 4.705444082e-13 6 
0.09013707148 1.516568178e-12 5.363116748e-13 8 
0.09055534095 1.291534763e-12 4.883168058e-13 7 
0.09097361042 9.317691554e-13 4.169092754e-13 5 
0.0913918799 1.486415094e-12 5.256396956e-13 8 
0.09181014937 5.558394453e-13 3.209580788e-13 3 
0.09222841884 5.48436076e-13 3.16994052e-13 3 
0.09264668832 8.849735379e-13 3.959178226e-13 5 
0.09306495779 1.21337367e-12 4.587314435e-13 7 
0.09348322726 8.688605594e-13 3.886502669e-13 5 
0.09390149674 8.666962404e-13 3.877407067e-13 5 
0.09431976621 8.679142788e-13 3.882765737e-13 5 
0.09473803568 1.040649998e-12 4.249627216e-13 6 
0.09515630516 6.792581558e-13 3.397393251e-13 4 
0.09557457463 1.495128148e-12 4.985977689e-13 9 
0.0959928441 4.9153836e-13 2.839368335e-13 3 
0.09641111358 4.921576946e-13 2.842720054e-13 3 
0.09682938305 9.575111056e-13 3.909692009e-13 6 
0.09724765252 6.583827526e-13 3.292300179e-13 4 
0.097665922 1.261793233e-12 4.462304488e-13 8 
0.09808419147 7.780946991e-13 3.482089047e-13 5 
0.09850246094 9.422606492e-13 3.847694954e-13 6 
0.09892073042 4.536533009e-13 2.620534932e-13 3 
0.09933899989 0 0 0 
0.09975726936 1.5206486e-12 4.810573573e-13 10 
0.1001755388 5.946340389e-13 2.973235529e-13 4 
0.1005938083 5.939165472e-13 2.969808936e-13 4 
0.1010120778 8.694773178e-13 3.550378047e-13 6 
0.1014303473 5.792955754e-13 2.897280789e-13 4 
0.1018486167 4.333296347e-13 2.502726719e-13 3 
0.1022668862 5.763701337e-13 2.883922643e-13 4 
0.1026851557 1.121983511e-12 3.968196139e-13 8 
0.1031034251 5.555971255e-13 2.779026567e-13 4 
0.1035216946 8.111516861e-13 3.313960285e-13 6 
0.1039399641 6.908764765e-13 3.09067215e-13 5 
0.1043582336 1.069403992e-12 3.782451124e-13 8 
0.104776503 9.362703197e-13 3.540029532e-13 7 
0.1051947725 1.71083665e-12 4.746117308e-13 13 
0.105613042 3.816046997e-13 2.203204387e-13 3 
0.1060313115 7.765023576e-13 3.171683141e-13 6 
0.1064495809 5.18571114e-13 2.593924113e-13 4 
0.1068678504 9.029984413e-13 3.414710282e-13 7 
0.1072861199 5.036265116e-13 2.521169308e-13 4 
0.1077043894 8.615622742e-13 3.257563248e-13 7 
0.1081226588 6.19987553e-13 2.774143112e-13 5 
0.1085409283 2.418243906e-13 1.711063458e-13 2 
0.1089591978 3.703930258e-13 2.141150627e-13 3 
0.1093774672 1.059635262e-12 3.533442003e-13 9 
0.1097957367 3.614196848e-13 2.089675151e-13 3 
0.1102140062 1.181227916e-12 3.737598383e-13 10 
0.1106322757 5.862201004e-13 2.622558735e-13 5 
0.1110505451 2.209216923e-13 1.564178497e-13 2 
0.1114688146 9.006137718e-13 3.185677164e-13 8 
0.1118870841 5.570942141e-13 2.492928713e-13 5 
0.1123053536 1.434962321e-12 3.981066544e-13 13 
0.112723623 1.116897979e-12 3.533114303e-13 10 
0.1131418925 9.744726064e-13 3.250194253e-13 9 
0.113560162 6.511158142e-13 2.658979643e-13 6 
0.1139784315 7.380136172e-13 2.793064666e-13 7 
0.1143967009 8.529423164e-13 3.016884733e-13 8 
0.1148149704 5.130287164e-13 2.295975651e-13 5 
0.1152332399 3.164562945e-13 1.827194048e-13 3 
0.1156515093 8.184874121e-13 2.894436335e-13 8 
0.1160697788 3.0030653e-13 1.734570389e-13 3 
0.1164880483 3.108441274e-13 1.795668544e-13 3 
0.1169063178 3.875132679e-13 1.940056965e-13 4 
0.1173245872 1.19242124e-12 3.443790579e-13 12 
0.1177428567 4.886349019e-13 2.187592259e-13 5 
0.1181611262 3.808893814e-13 1.905503397e-13 4 
0.1185793957 7.644273641e-13 2.704081469e-13 8 
0.1189976651 6.612059257e-13 2.500425377e-13 7 
0.1194159346 4.576744401e-13 2.047308837e-13 5 
0.1198342041 7.221027523e-13 2.554221696e-13 8 
0.1202524735 7.310017755e-13 2.586959194e-13 8 
0.120670743 7.34427297e-13 2.597421233e-13 8 
0.1210890125 1.76579066e-13 1.248680622e-13 2 
0.121507282 3.572486058e-13 1.787483821e-13 4 
0.1219255514 7.822021564e-13 2.608817955e-13 9 
0.1223438209 4.314424389e-13 1.929948764e-13 5 
0.1227620904 5.072963659e-13 2.072934937e-13 6 
0.1231803599 6.776271705e-13 2.396743174e-13 8 
0.1235986293 5.206668117e-13 2.128181325e-13 6 
0.1240168988 6.576091461e-13 2.32695896e-13 8 
0.1244351683 3.361617876e-13 1.68168795e-13 4 
0.1248534378 4.036799859e-13 1.806363928e-13 5 
0.1252717072 4.961556395e-13 2.027052031e-13 6 
0.1256899767 3.238252069e-13 1.620556958e-13 4 
0.1261082462 0 0 0 
0.1265265156 7.751534156e-13 2.453292386e-13 10 
0.1269447851 2.299801876e-13 1.327994673e-13 3 
0.1273630546 6.730673964e-13 2.24523902e-13 9 
0.1277813241 3.068307644e-13 1.53556971e-13 4 
0.1281995935 4.495161962e-13 1.836862808e-13 6 
0.128617863 5.132047072e-13 1.941108176e-13 7 
0.1290361325 5.01321903e-13 1.895792113e-13 7 
0.129454402 8.101211292e-13 2.443201192e-13 11 
0.1298726714 9.959333638e-13 2.6637371e-13 14 
0.1302909409 5.730769235e-13 2.030262459e-13 8 
0.1307092104 4.372567468e-13 1.786236761e-13 6 
0.1311274799 5.568205516e-13 1.970667911e-13 8 
0.1315457493 8.080998997e-13 2.334293093e-13 12 
0.1319640188 4.034644476e-13 1.648111498e-13 6 
0.1323822883 7.824616549e-13 2.260454618e-13 12 
0.1328005577 2.580975539e-13 1.290873184e-13 4 
0.1332188272 4.545535754e-13 1.720528407e-13 7 
0.1336370967 2.58606876e-13 1.294829922e-13 4 
0.1340553662 4.410726135e-13 1.669123912e-13 7 
0.1344736356 3.160668269e-13 1.413868237e-13 5 
0.1348919051 3.85404771e-13 1.575422596e-13 6 
0.1353101746 3.061526799e-13 1.370687697e-13 5 
0.1357284441 5.524981131e-13 1.844500263e-13 9 
0.1361467135 2.399035711e-13 1.200669135e-13 4 
0.136564983 3.581939903e-13 1.4631394e-13 6 
0.1369832525 4.67652786e-13 1.655434156e-13 8 
0.137401522 4.623008581e-13 1.63572708e-13 8 
0.1378197914 9.961966602e-13 2.418671866e-13 17 
0.1382380609 5.11997982e-13 1.707255371e-13 9 
0.1386563304 6.676287341e-13 1.929209844e-13 12 
0.1390745998 2.740513826e-13 1.225853897e-13 5 
0.1394928693 1.658851807e-13 9.582564227e-14 3 
0.1399111388 3.243694457e-13 1.325201189e-13 6 
0.1403294083 3.300148254e-13 1.348630525e-13 6 
0.1407476777 4.818756331e-13 1.607807218e-13 9 
0.1411659472 3.111489848e-13 1.271809823e-13 6 
0.1415842167 3.726476176e-13 1.411557784e-13 7 
0.1420024862 2.1254498e-13 1.063382035e-13 4 
0.1424207556 4.597439052e-13 1.533697445e-13 9 
0.1428390251 5.366955091e-13 1.62029331e-13 11 
0.1432572946 2.92037343e-13 1.193191945e-13 6 
0.143675564 1.959388197e-13 9.801452178e-14 4 
0.1440938335 3.877639558e-13 1.373099848e-13 8 
0.144512103 4.341273381e-13 1.449192675e-13 9 
0.1449303725 6.073854411e-13 1.686604855e-13 13 
0.1453486419 4.675134756e-13 1.480178072e-13 10 
0.1457669114 2.333404998e-13 1.044188461e-13 5 
0.1461851809 2.672532403e-13 1.09161195e-13 6 
0.1466034504 3.671124363e-13 1.298462937e-13 8 
0.1470217198 6.749936762e-13 1.744733137e-13 15 
0.1474399893 1.768640373e-13 8.84650841e-14 4 
0.1478582588 1.772497613e-13 8.868685398e-14 4 
0.1482765283 4.36462117e-13 1.381177106e-13 10 
0.1486947977 1.72315121e-13 8.619858163e-14 4 
0.1491130672 2.572627087e-13 1.050496667e-13 6 
0.1495313367 4.655628238e-13 1.405110274e-13 11 
0.1499496061 2.855600266e-13 1.080232193e-13 7 
0.1503678756 2.868485574e-13 1.084943033e-13 7 
0.1507861451 3.987806521e-13 1.263013476e-13 10 
0.1512044146 1.119860493e-13 6.476525192e-14 3 
0.151622684 1.960219925e-13 8.785506437e-14 5 
0.1520409535 3.040436829e-13 1.075853446e-13 8 
0.152459223 3.934501414e-13 1.245820021e-13 10 
0.1528774925 2.64848769e-13 1.001562508e-13 7 
0.1532957619 2.926066824e-13 1.036336893e-13 8 
0.1537140314 2.989339073e-13 1.057722615e-13 8 
0.1541323009 4.02524298e-13 1.215902465e-13 11 
0.1545505704 4.307991743e-13 1.245779655e-13 12 
0.1549688398 2.137547921e-13 8.749404874e-14 6 
0.1553871093 3.855467727e-13 1.164181784e-13 11 
0.1558053788 1.767595369e-13 7.915969823e-14 5 
0.1562236482 3.487697865e-13 1.103988301e-13 10 
0.1566419177 3.398998074e-13 1.076301242e-13 10 
0.1570601872 3.6948157e-13 1.115904732e-13 11 
0.1574784567 3.553055965e-13 1.072947637e-13 11 
0.1578967261 3.24305125e-13 1.026753322e-13 10 
0.1583149956 2.52280937e-13 8.931664805e-14 8 
0.1587332651 3.520435899e-13 1.063137882e-13 11 
0.1591515346 2.218151175e-13 8.392008249e-14 7 
0.159569804 9.325597052e-14 5.38781725e-14 3 
0.1599880735 4.32887903e-13 1.158279958e-13 14 
0.160406343 3.061121313e-13 9.691577145e-14 10 
0.1608246125 3.310678759e-13 9.986441334e-14 11 
0.1612428819 2.967452081e-13 9.399618978e-14 10 
0.1616611514 1.22336813e-13 6.121639039e-14 4 
0.1620794209 2.251788113e-13 7.969580146e-14 8 
0.1624976903 2.896758754e-13 9.172346233e-14 10 
0.1629159598 1.414723915e-13 6.34697272e-14 5 
0.1633342293 2.232124502e-13 7.900342354e-14 8 
0.1637524988 3.876044098e-13 1.037551492e-13 14 
0.1641707682 1.135422583e-13 5.686976821e-14 4 
0.1645890377 1.976713501e-13 7.477231616e-14 7 
0.1650073072 2.878519449e-13 8.69556726e-14 11 
0.1654255767 1.849913531e-13 7.003004383e-14 7 
0.1658438461 1.238051647e-13 5.537466701e-14 5 
0.1662621156 2.826489843e-13 8.533109841e-14 11 
0.1666803851 2.220539125e-13 7.415115911e-14 9 
0.1670986545 2.307153317e-13 7.699202137e-14 9 
0.167516924 3.253133386e-13 9.035020079e-14 13 
0.1679351935 2.128380046e-13 7.114050709e-14 9 
0.168353463 2.622416832e-13 7.926163399e-14 11 
0.1687717324 1.682756122e-13 6.362246533e-14 7 
0.1691900019 2.548993131e-13 7.697196664e-14 11 
0.1696082714 2.05972022e-13 6.871354811e-14 9 
0.1700265409 2.278160548e-13 7.209976853e-14 10 
0.1704448103 2.959712363e-13 8.231883553e-14 13 
0.1708630798 1.590593746e-13 6.033555082e-14 7 
0.1712813493 2.1597701e-13 6.841010775e-14 10 
0.1716996188 2.820003889e-13 7.837745261e-14 13 
0.1721178882 1.950254913e-13 6.512608461e-14 9 
0.1725361577 2.481084503e-13 7.177979533e-14 12 
0.1729544272 1.680271093e-13 5.950010813e-14 8 
0.1733726966 2.67087961e-13 7.427262974e-14 13 
0.1737909661 1.348525884e-13 5.105515716e-14 7 
0.1742092356 2.019376979e-13 6.393581032e-14 10 
0.1746275051 1.408372973e-13 5.330859727e-14 7 
0.1750457745 2.574058774e-13 7.149990117e-14 13 
0.175464044 1.940210038e-13 6.153800105e-14 10 
0.1758823135 2.074684419e-13 6.268652721e-14 11 
0.176300583 1.105671291e-13 4.516799148e-14 6 
0.1767188524 2.4501635e-13 6.807521949e-14 13 
0.1771371219 1.322615271e-13 5.009275169e-14 7 
0.1775553914 8.997660066e-14 4.031215367e-14 5 
0.1779736609 5.090405652e-14 2.954184078e-14 3 
0.1783919303 1.715070998e-13 5.427801466e-14 10 
0.1788101998 1.915093798e-13 5.793228642e-14 11 
0.1792284693 1.582491755e-13 5.28209697e-14 9 
0.1796467387 2.868946584e-13 6.968650773e-14 17 
0.1800650082 8.582435997e-14 3.850188365e-14 5 
0.1804832777 1.844257771e-13 5.567317566e-14 11 
0.1809015472 1.785207455e-13 5.403706143e-14 11 
0.1813198166 1.25445583e-13 4.452772973e-14 8 
0.1817380861 1.270389372e-13 4.50557263e-14 8 
0.1821563556 1.519247417e-13 4.818735179e-14 10 
0.1825746251 2.319878464e-13 5.99877672e-14 15 
0.1829928945 1.045857339e-13 3.957750807e-14 7 
0.183411164 1.200080478e-13 4.252048031e-14 8 
0.1838294335 8.853259996e-14 3.615452367e-14 6 
0.184247703 1.95923114e-13 5.44698603e-14 13 
0.1846659724 1.593334865e-13 4.815676924e-14 11 
0.1850842419 1.546092495e-13 4.670286178e-14 11 
0.1855025114 1.955853249e-13 5.237687196e-14 14 
0.1859207808 1.376476468e-13 4.367498436e-14 10 
0.1863390503 1.77492496e-13 4.93435271e-14 13 
0.1867573198 1.329097344e-13 4.208132847e-14 10 
0.1871755893 1.294372031e-13 4.096607621e-14 10 
0.1875938587 1.842922163e-13 4.937910648e-14 14 
0.1880121282 1.761876905e-13 4.717640423e-14 14 
0.1884303977 1.524684231e-13 4.413780568e-14 12 
0.1888486672 1.52159671e-13 4.402085322e-14 12 
0.1892669366 8.716182277e-14 3.298130494e-14 7 
0.1896852061 1.507664603e-13 4.366066659e-14 12 
0.1901034756 1.700810206e-13 4.558615934e-14 14 
0.190521745 1.408473023e-13 4.078737648e-14 12 
0.1909400145 1.783927448e-13 4.622976391e-14 15 
0.191358284 1.172273581e-13 3.715138818e-14 10 
0.1917765535 1.048892227e-13 3.503067244e-14 9 
0.1921948229 5.616112071e-14 2.515915756e-14 5 
0.1926130924 1.614355152e-13 4.172554004e-14 15 
0.1930313619 9.798771413e-14 3.274151114e-14 9 
0.1934496314 5.183734254e-14 2.324018427e-14 5 
0.1938679008 1.287445439e-13 3.727316342e-14 12 
0.1942861703 1.139326455e-13 3.44653219e-14 11 
0.1947044398 7.998531765e-14 2.831591954e-14 8 
0.1951227093 9.245736835e-14 3.090806858e-14 9 
0.1955409787 1.066736441e-13 3.224010634e-14 11 
0.1959592482 1.260605969e-13 3.50083377e-14 13 
0.1963775177 7.703729514e-14 2.730670935e-14 8 
0.1967957871 9.809489659e-14 3.111851801e-14 10 
0.1972140566 1.256908651e-13 3.497789401e-14 13 
0.1976323261 1.143795379e-13 3.309200074e-14 12 
0.1980505956 7.173572417e-14 2.541490189e-14 8 
0.198468865 6.758516289e-14 2.5595291e-14 7 
0.1988871345 4.518346612e-14 2.024621254e-14 5 
0.199305404 8.808969383e-14 2.795973656e-14 10 
0.1997236735 5.194042382e-14 2.126008508e-14 6 
0.2001419429 8.662551747e-14 2.746412793e-14 10 
0.2005602124 1.508254634e-13 3.566690999e-14 18 
0.2009784819 5.838216915e-14 2.2092985e-14 7 
0.2013967514 5.56723244e-14 2.10687339e-14 7 
0.2018150208 1.131233647e-13 3.027453082e-14 14 
0.2022332903 8.698807364e-14 2.626341847e-14 11 
0.2026515598 1.534957461e-13 3.531437168e-14 19 
0.2030698292 1.087284317e-13 2.908980317e-14 14 
0.2034880987 7.743120231e-14 2.458407202e-14 10 
0.2039063682 7.684641797e-14 2.435757036e-14 10 
0.2043246377 1.227979393e-13 2.985128875e-14 17 
0.2047429071 7.521720023e-14 2.383896717e-14 10 
0.2051611766 7.870131588e-14 2.379248148e-14 11 
0.2055794461 1.200091377e-13 2.917203165e-14 17 
0.2059977156 8.248683681e-14 2.389100911e-14 12 
0.206415985 7.770067348e-14 2.349966309e-14 11 
0.2068342545 6.994061831e-14 2.217527441e-14 10 
0.207252524 7.653414942e-14 2.313605404e-14 11 
0.2076707935 7.628097767e-14 2.208268256e-14 12 
0.2080890629 6.742839626e-14 2.137623377e-14 10 
0.2085073324 9.172893096e-14 2.460284884e-14 14 
0.2089256019 6.805571859e-14 2.055671412e-14 11 
0.2093438713 9.630488658e-14 2.49145313e-14 15 
0.2097621408 8.625074964e-14 2.308590637e-14 14 
0.2101804103 9.923825317e-14 2.488455958e-14 16 
0.2105986798 9.005235496e-14 2.335217758e-14 15 
0.2110169492 7.865124098e-14 2.187211125e-14 13 
0.2114352187 7.248330865e-14 2.098109621e-14 12 
0.2118534882 8.207693056e-14 2.197821733e-14 14 
0.2122717577 5.505516854e-14 1.747553215e-14 10 
0.2126900271 3.983115689e-14 1.512605014e-14 7 
0.2131082966 7.221975063e-14 2.006093988e-14 13 
0.2135265661 3.855840996e-14 1.460306997e-14 7 
0.2139448355 4.391597329e-14 1.559135037e-14 8 
0.214363105 5.71587263e-14 1.727259157e-14 11 
0.2147813745 4.77354122e-14 1.5964019e-14 9 
0.215199644 6.668091167e-14 1.854415678e-14 13 
0.2156179134 4.549241286e-14 1.522157162e-14 9 
0.2160361829 4.398356861e-14 1.472689187e-14 9 
0.2164544524 5.996090218e-14 1.731804101e-14 12 
0.2168727219 3.945708832e-14 1.397124113e-14 8 
0.2172909913 5.266037866e-14 1.59343251e-14 11 
0.2177092608 4.204526896e-14 1.405181106e-14 9 
0.2181275303 6.550275838e-14 1.756455355e-14 14 
0.2185457998 3.350907259e-14 1.271780926e-14 7 
0.2189640692 8.853046446e-14 2.033466244e-14 19 
0.2193823387 7.044756174e-14 1.766821126e-14 16 
0.2198006082 5.225436545e-14 1.511168112e-14 12 
0.2202188776 4.291885489e-14 1.359862825e-14 10 
0.2206371471 7.998924756e-14 1.838826543e-14 19 
0.2210554166 5.07349975e-14 1.47071459e-14 12 
0.2214736861 3.646828144e-14 1.218136432e-14 9 
0.2218919555 5.654518981e-14 1.514375707e-14 14 
0.222310225 3.30661771e-14 1.172969854e-14 8 
0.2227284945 5.592482363e-14 1.499321017e-14 14 
0.223146764 4.022770557e-14 1.273315886e-14 10 
0.2235650334 3.745805987e-14 1.185430836e-14 10 
0.2239833029 3.073868483e-14 1.089603442e-14 8 
0.2244015724 3.436938374e-14 1.148810832e-14 9 
0.2248198419 5.698265366e-14 1.476311484e-14 15 
0.2252381113 4.51051487e-14 1.306431314e-14 12 
0.2256563808 5.398136104e-14 1.395898688e-14 15 
0.2260746503 1.783046545e-14 8.020261506e-15 5 
0.2264929197 1.10571509e-14 6.388468273e-15 3 
0.2269111892 3.933811025e-14 1.189651511e-14 11 
0.2273294587 6.749178472e-14 1.552140828e-14 19 
0.2277477282 5.779644083e-14 1.403689904e-14 17 
0.2281659976 3.626887796e-14 1.094759536e-14 11 
0.2285842671 5.36373713e-14 1.344725752e-14 16 
0.2290025366 3.406569541e-14 1.080382624e-14 10 
0.2294208061 5.08021015e-14 1.273142756e-14 16 
0.2298390755 5.082393024e-14 1.272944919e-14 16 
0.230257345 2.687105929e-14 8.997305271e-15 9 
0.2306756145 4.74348862e-14 1.188988569e-14 16 
0.231093884 3.327995084e-14 1.005805193e-14 11 
0.2315121534 2.813496094e-14 9.38987619e-15 9 
0.2319304229 4.672007061e-14 1.170990912e-14 16 
0.2323486924 5.265267289e-14 1.243987809e-14 18 
0.2327669618 2.357396212e-14 8.369190096e-15 8 
0.2331852313 3.164908771e-14 9.560273413e-15 11 
0.2336035008 3.268727591e-14 9.881694977e-15 11 
0.2340217703 3.842488556e-14 1.028613439e-14 14 
0.2344400397 3.250356364e-14 9.407276456e-15 12 
0.2348583092 1.643590427e-14 6.730645997e-15 6 
0.2352765787 4.259666417e-14 1.066176714e-14 16 
0.2356948482 2.317703527e-14 7.734313415e-15 9 
0.2361131176 2.618343284e-14 8.282985237e-15 10 
0.2365313871 2.832270769e-14 8.548041986e-15 11 
0.2369496566 2.196732607e-14 7.335216649e-15 9 
0.237367926 2.776272896e-14 8.384272888e-15 11 
0.2377861955 2.205334216e-14 7.382996463e-15 9 
0.238204465 3.412206296e-14 9.150072656e-15 14 
0.2386227345 1.977614906e-14 7.006985193e-15 8 
0.2390410039 4.118412575e-14 1.000809248e-14 17 
0.2394592734 2.832295213e-14 8.183402034e-15 12 
0.2398775429 2.673980631e-14 7.729535995e-15 12 
0.2402958124 3.862533052e-14 9.393643574e-15 17 
0.2407140818 2.434022885e-14 7.355743078e-15 11 
0.2411323513 2.744885662e-14 7.938218362e-15 12 
0.2415506208 3.673838076e-14 8.92691048e-15 17 
0.2419688903 1.796116652e-14 6.36674143e-15 8 
0.2423871597 1.502892021e-14 5.694114598e-15 7 
0.2428054292 1.928930344e-14 6.439077041e-15 9 
0.2432236987 2.995940245e-14 8.017924178e-15 14 
0.2436419681 2.528677723e-14 7.309240431e-15 12 
0.2440602376 2.745608028e-14 7.628612782e-15 13 
0.2444785071 1.860160012e-14 6.219960096e-15 9 
0.2448967766 2.403626909e-14 6.948512905e-15 12 
0.245315046 3.614370427e-14 8.535603383e-15 18 
0.2457333155 3.250883295e-14 8.142351611e-15 16 
0.246151585 3.949871978e-14 8.844017242e-15 20 
0.2465698545 2.371533054e-14 6.85227884e-15 12 
0.2469881239 2.733011946e-14 7.31656214e-15 14 
0.2474063934 3.766947665e-14 8.433329525e-15 20 
0.2478246629 3.398968263e-14 8.024532808e-15 18 
0.2482429324 2.25025603e-14 6.50358854e-15 12 
0.2486612018 2.042888095e-14 6.16441657e-15 11 
0.2490794713 1.796619972e-14 5.683557962e-15 10 
0.2494977408 1.776275402e-14 5.624598504e-15 10 
0.2499160102 4.133326878e-14 8.627243013e-15 23 
0.2503342797 2.45969157e-14 6.578456835e-15 14 
0.2507525492 2.86902745e-14 7.180299976e-15 16 
0.2511708187 2.14895185e-14 6.205740053e-15 12 
0.2515890881 2.611441876e-14 6.746642735e-15 15 
0.2520073576 1.34973303e-14 4.774591605e-15 8 
0.2524256271 2.075508822e-14 5.999070656e-15 12 
0.2528438966 2.243882439e-14 6.230966786e-15 13 
0.253262166 2.540349472e-14 6.564030944e-15 15 
0.2536804355 1.930283289e-14 5.576828637e-15 12 
0.254098705 1.949443331e-14 5.633344733e-15 12 
0.2545169745 2.778347654e-14 6.746151458e-15 17 
0.2549352439 3.569640211e-14 7.617907826e-15 22 
0.2553535134 2.135196708e-14 5.925595267e-15 13 
0.2557717829 1.745299909e-14 5.264088345e-15 11 
0.2561900523 2.875529694e-14 6.783983595e-15 18 
0.2566083218 2.664577753e-14 6.466321427e-15 17 
0.2570265913 2.188729802e-14 5.85338058e-15 14 
0.2574448608 1.722929559e-14 5.19736052e-15 11 
0.2578631302 1.831674053e-14 5.289795925e-15 12 
0.2582813997 1.798156497e-14 5.194298427e-15 12 
0.2586996692 1.656738778e-14 4.998465349e-15 11 
0.2591179387 1.964450122e-14 5.450914261e-15 13 
0.2595362081 1.476570273e-14 4.672511666e-15 10 
0.2599544776 2.070439263e-14 5.536580166e-15 14 
0.2603727471 2.487645294e-14 6.03717854e-15 17 
0.2607910165 2.909284806e-14 6.507294868e-15 20 
0.261209286 2.290599732e-14 5.729285434e-15 16 
0.2616275555 2.161441479e-14 5.583375992e-15 15 
0.262045825 1.439136736e-14 4.551749313e-15 10 
0.2624640944 2.118289553e-14 5.471828954e-15 15 
0.2628823639 1.995826395e-14 5.336743002e-15 14 
0.2633006334 1.540492692e-14 4.647099581e-15 11 
0.2637189029 1.940064279e-14 5.187170794e-15 14 
0.2641371723 2.476291922e-14 5.838929391e-15 18 
0.2645554418 2.080530542e-14 5.372857092e-15 15 
0.2649737113 1.378997594e-14 4.362778295e-15 10 
0.2653919808 1.757942879e-14 4.87638611e-15 13 
0.2658102502 2.039588907e-14 5.26785061e-15 15 
0.2662285197 1.76381258e-14 4.89267203e-15 13 
0.2666467892 2.018464249e-14 5.21321951e-15 15 
0.2670650586 1.351436887e-14 4.275177482e-15 10 
0.2674833281 1.86813888e-14 4.994425608e-15 14 
0.2679015976 1.859784648e-14 4.971559473e-15 14 
0.2683198671 2.512158267e-14 5.76397222e-15 19 
0.2687381365 1.83597421e-14 4.907907194e-15 14 
0.269156406 1.820103359e-14 4.864813372e-15 14 
0.2695746755 1.558334893e-14 4.499335644e-15 12 
0.269992945 1.936853412e-14 5.00159372e-15 15 
0.2704112144 1.942475874e-14 5.01578413e-15 15 
0.2708294839 1.161370575e-14 3.871606288e-15 9 
0.2712477534 1.410233806e-14 4.252507066e-15 11 
0.2716660229 1.922365393e-14 4.964622886e-15 15 
0.2720842923 1.89665926e-14 4.897398994e-15 15 
0.2725025618 1.91224849e-14 4.937805255e-15 15 
0.2729208313 1.774124341e-14 4.742038148e-15 14 
0.2733391007 1.771062591e-14 4.733730504e-15 14 
0.2737573702 2.004502489e-14 5.011567643e-15 16 
0.2741756397 1.368362543e-14 4.125922392e-15 11 
0.2745939092 2.862694295e-14 5.969383433e-15 23 
0.2750121786 2.855664755e-14 5.954671597e-15 23 
0.2754304481 2.729968351e-14 5.82050037e-15 22 
0.2758487176 1.984805451e-14 4.962520728e-15 16 
0.2762669871 1.969063061e-14 4.922844223e-15 16 
0.2766852565 1.722675284e-14 4.604183097e-15 14 
0.277103526 1.468050362e-14 4.238012835e-15 12 
0.2775217955 1.955738895e-14 4.889488895e-15 16 
0.277940065 1.586583714e-14 4.400538679e-15 13 
0.2783583344 2.435759411e-14 5.446641918e-15 20 
0.2787766039 1.819596768e-14 4.698254306e-15 15 
0.2791948734 2.548028043e-14 5.560364691e-15 21 
0.2796131428 1.692410523e-14 4.523202761e-15 14 
0.2800314123 1.932887681e-14 4.832263692e-15 16 
0.2804496818 1.926922734e-14 4.817358641e-15 16 
0.2808679513 1.563976394e-14 4.33770307e-15 13 
0.2812862207 2.277596322e-14 5.225175355e-15 19 
0.2817044902 1.07783576e-14 3.592793079e-15 9 
0.2821227597 2.749343978e-14 5.732797043e-15 23 
0.2825410292 1.910692416e-14 4.776738266e-15 16 
0.2829592986 1.547456378e-14 4.291872037e-15 13 
0.2833775681 1.903109203e-14 4.757779945e-15 16 
0.2837958376 2.970237406e-14 5.94048407e-15 25 
0.284214107 1.541985465e-14 4.276701384e-15 13 
0.2846323765 2.368116338e-14 5.295273268e-15 20 
0.285050646 2.364903041e-14 5.28808886e-15 20 
0.2854689155 1.298732779e-14 3.915829554e-15 11 
0.2858871849 1.062922907e-14 3.54309308e-15 9 
0.2863054544 1.416888414e-14 4.090223656e-15 12 
0.2867237239 7.06761665e-15 2.885354562e-15 6 
0.2871419934 1.764735702e-14 4.556549619e-15 15 
0.2875602628 1.649437453e-14 4.408357385e-15 14 
0.2879785323 1.526581512e-14 4.234012705e-15 13 
0.2883968018 1.524489914e-14 4.228205995e-15 13 
0.2888150713 1.875509391e-14 4.68880882e-15 16 
0.2892333407 2.456268042e-14 5.360053503e-15 21 
0.2896516102 1.639314674e-14 4.381298244e-15 14 
0.2900698797 2.340627741e-14 5.233889213e-15 20 
0.2904881491 2.219039249e-14 5.090849362e-15 19 
0.2909064186 1.519819553e-14 4.215253597e-15 13 
0.2913246881 1.867750772e-14 4.669434929e-15 16 
0.2917429576 2.564891541e-14 5.468450808e-15 22 
0.292161227 2.095379125e-14 4.938934694e-15 18 
0.2925794965 1.046474616e-14 3.488294108e-15 9 
0.292997766 2.210017502e-14 5.070181434e-15 19 
0.2934160355 1.279475881e-14 3.857863935e-15 11 
0.2938343049 1.747313091e-14 4.511721648e-15 15 
0.2942525744 1.978082627e-14 4.797712226e-15 17 
0.2946708439 1.168299296e-14 3.6946524e-15 10 
0.2950891134 1.975157964e-14 4.790598361e-15 17 
0.2955073828 1.623612164e-14 4.339416168e-15 14 
0.2959256523 2.096076393e-14 4.940614932e-15 18 
0.2963439218 3.022170267e-14 5.927273975e-15 26 
0.2967621912 1.390943001e-14 4.015479102e-15 12 
0.2971804607 2.562082564e-14 5.462739181e-15 22 
0.2975987302 1.973703547e-14 4.787086677e-15 17 
0.2980169997 1.627174266e-14 4.348958158e-15 14 
0.2984352691 1.741466298e-14 4.496643749e-15 15 
0.2988535386 1.978082337e-14 4.797689243e-15 17 
0.2992718081 1.97425576e-14 4.788510991e-15 17 
0.2996900776 3.367484496e-14 6.253464638e-15 29 
0.300108347 2.781273298e-14 5.677489892e-15 24 
0.3005266165 1.738275142e-14 4.488415211e-15 15 
0.300944886 1.628089038e-14 4.351404158e-15 14 
0.3013631555 2.32033949e-14 5.188687064e-15 20 
0.3017814249 1.510942832e-14 4.190703441e-15 13 
0.3021996944 1.966100675e-14 4.768677849e-15 17 
0.3026179639 2.670413982e-14 5.56851814e-15 23 
0.3030362333 2.085864096e-14 4.916655058e-15 18 
0.3034545028 1.862537783e-14 4.65666515e-15 16 
0.3038727723 2.674740917e-14 5.577506993e-15 23 
0.3042910418 1.160378099e-14 3.669631714e-15 10 
0.3047093112 1.156044927e-14 3.65583134e-15 10 
0.3051275807 1.975790999e-14 4.792236681e-15 17 
0.3055458502 1.741859957e-14 4.497700804e-15 15 
0.3059641197 2.096226912e-14 4.941152324e-15 18 
0.3063823891 1.620069882e-14 4.330004014e-15 14 
0.3068006586 1.749598954e-14 4.517587841e-15 15 
0.3072189281 2.212523027e-14 5.076137275e-15 19 
0.3076371975 1.976055845e-14 4.792866426e-15 17 
0.308055467 1.976802787e-14 4.794632947e-15 17 
0.3084737365 1.62317971e-14 4.338442827e-15 14 
0.308892006 2.209942785e-14 5.070112768e-15 19 
0.3093102754 1.984970379e-14 4.814486571e-15 17 
0.3097285449 1.978928757e-14 4.799948303e-15 17 
0.3101468144 1.743691864e-14 4.502345184e-15 15 
0.3105650839 1.871275877e-14 4.678358764e-15 16 
0.3109833533 2.556877157e-14 5.451524761e-15 22 
0.3114016228 2.1014183e-14 4.953359516e-15 18 
0.3118198923 2.216256084e-14 5.084774955e-15 19 
0.3122381618 1.281282147e-14 3.863497359e-15 11 
0.3126564312 1.623351173e-14 4.338869785e-15 14 
0.3130747007 2.669659806e-14 5.567009981e-15 23 
0.3134929702 2.336205803e-14 5.224196483e-15 20 
0.3139112396 1.394684307e-14 4.026389136e-15 12 
0.3143295091 1.400615377e-14 4.043416908e-15 12 
0.3147477786 1.985216709e-14 4.815223132e-15 17 
0.3151660481 2.332126459e-14 5.215021654e-15 20 
0.3155843175 1.754628876e-14 4.530601425e-15 15 
0.316002587 1.873283204e-14 4.683396564e-15 16 
0.3164208565 1.516746985e-14 4.20681521e-15 13 
0.316839126 1.630707386e-14 4.358412409e-15 14 
0.3172573954 1.863558432e-14 4.659313512e-15 16 
0.3176756649 1.749749156e-14 4.517950225e-15 15 
0.3180939344 2.209348358e-14 5.068771281e-15 19 
0.3185122039 3.379632037e-14 6.276057246e-15 29 
0.3189304733 2.806938825e-14 5.729852768e-15 24 
0.3193487428 2.559039979e-14 5.456053377e-15 22 
0.3197670123 1.633536425e-14 4.366080214e-15 14 
0.3201852817 2.10059618e-14 4.951386582e-15 18 
0.3206035512 1.05210825e-14 3.507124668e-15 9 
0.3210218207 2.105187934e-14 4.962094706e-15 18 
0.3214400902 2.331788875e-14 5.214276415e-15 20 
0.3218583596 2.323861951e-14 5.196565294e-15 20 
0.3222766291 2.562103338e-14 5.46256048e-15 22 
0.3226948986 2.09801102e-14 4.94516314e-15 18 
0.3231131681 2.213100294e-14 5.077319236e-15 19 
0.3235314375 2.793356764e-14 5.702028444e-15 24 
0.323949707 3.036675274e-14 5.955545683e-15 26 
0.3243679765 3.614817071e-14 6.492600983e-15 31 
0.324786246 1.862658759e-14 4.65675468e-15 16 
0.3252045154 1.623598383e-14 4.339368028e-15 14 
0.3256227849 2.211733424e-14 5.074238601e-15 19 
0.3260410544 3.491528789e-14 6.374854383e-15 30 
0.3264593238 2.207834772e-14 5.065251788e-15 19 
0.3268775933 1.862575072e-14 4.656527046e-15 16 
0.3272958628 2.204290816e-14 5.057090532e-15 19 
0.3277141323 1.745560503e-14 4.507083778e-15 15 
0.3281324017 2.095543739e-14 4.939308176e-15 18 
0.3285506712 2.441028234e-14 5.32687696e-15 21 
0.3289689407 2.208725958e-14 5.067288745e-15 19 
0.3293872102 2.200963516e-14 5.049494293e-15 19 
0.3298054796 1.973003967e-14 4.785308243e-15 17 
0.3302237491 2.318607299e-14 5.184634559e-15 20 
0.3306420186 2.899622336e-14 5.799360425e-15 25 
0.331060288 1.970115504e-14 4.778306501e-15 17 
0.3314785575 2.314553725e-14 5.175590336e-15 20 
0.331896827 2.433803292e-14 5.311046157e-15 21 
0.3323150965 2.316585835e-14 5.180125711e-15 20 
0.3327333659 1.388907159e-14 4.009492097e-15 12 
0.3331516354 2.084290746e-14 4.912758475e-15 18 
0.3335699049 1.616558994e-14 4.320483261e-15 14 
0.3339881744 1.728324622e-14 4.462586019e-15 15 
0.3344064438 1.152824129e-14 3.645602961e-15 10 
0.3348247133 2.539974235e-14 5.415311067e-15 22 
0.3352429828 3.227115213e-14 6.098779469e-15 28 
0.3356612523 2.648852538e-14 5.5233057e-15 23 
0.3360795217 2.188311073e-14 5.020376553e-15 19 
0.3364977912 1.609835252e-14 4.302523045e-15 14 
0.3369160607 1.611081444e-14 4.305811788e-15 14 
0.3373343301 1.952915547e-14 4.736558234e-15 17 
0.3377525996 2.181140667e-14 5.003910953e-15 19 
0.3381708691 2.067358675e-14 4.872834647e-15 18 
0.3385891386 1.607833012e-14 4.29714162e-15 14 
0.339007408 2.290066551e-14 5.120777938e-15 20 
0.3394256775 2.058917862e-14 4.852962578e-15 18 
0.339843947 3.317747339e-14 6.160920582e-15 29 
0.3402622165 1.942122739e-14 4.710350861e-15 17 
0.3406804859 1.827597559e-14 4.568999027e-15 16 
0.3410987554 2.166800264e-14 4.971003766e-15 19 
0.3415170249 2.164643604e-14 4.9660442e-15 19 
0.3419352944 3.072640117e-14 5.913312505e-15 27 
0.3423535638 2.61554569e-14 5.453801958e-15 23 
0.3427718333 2.954428214e-14 5.794118654e-15 26 
0.3431901028 1.928659755e-14 4.677698853e-15 17 
0.3436083722 2.154670865e-14 4.943159664e-15 19 
0.3440266417 2.718790408e-14 5.54971477e-15 24 
0.3444449112 2.036923331e-14 4.801077462e-15 18 
0.3448631807 2.82496717e-14 5.649942732e-15 25 
0.3452814501 1.581267734e-14 4.226116192e-15 14 
0.3456997196 2.594465693e-14 5.409836117e-15 23 
0.3461179891 1.464796174e-14 4.062614268e-15 13 
0.3465362586 1.913223378e-14 4.640248809e-15 17 
0.346954528 2.472244241e-14 5.270844033e-15 22 
0.3473727975 2.582028379e-14 5.383902219e-15 23 
0.347791067 1.904626376e-14 4.619401515e-15 17 
0.3482093365 2.239221837e-14 5.007055855e-15 20 
0.3486276059 3.465789488e-14 6.224744997e-15 31 
0.3490458754 2.679893586e-14 5.470317237e-15 24 
0.3494641449 1.449210919e-14 4.019399339e-15 13 
0.3498824143 2.338985339e-14 5.10408949e-15 21 
0.3503006838 1.556453156e-14 4.159800277e-15 14 
0.3507189533 1.998653668e-14 4.710878446e-15 18 
0.3511372228 2.330358411e-14 5.085264095e-15 21 
0.3515554922 3.100340712e-14 5.859102414e-15 28 
0.3519737617 2.099746069e-14 4.817166056e-15 19 
0.3523920312 2.869363783e-14 5.627309403e-15 26 
0.3528103007 2.426275374e-14 5.172861452e-15 22 
0.3532285701 2.202854474e-14 4.925752137e-15 20 
0.3536468396 2.088519979e-14 4.791408665e-15 19 
0.3540651091 1.756123275e-14 4.390360222e-15 16 
0.3544833785 2.080613728e-14 4.773284606e-15 19 
0.354901648 2.842342326e-14 5.574337392e-15 26 
0.3553199175 2.509318986e-14 5.232332927e-15 23 
0.355738187 1.962429534e-14 4.62551822e-15 18 
0.3561564564 1.414518229e-14 3.923219126e-15 13 
0.3565747259 1.196079801e-14 3.606335834e-15 11 
0.3569929954 2.49871325e-14 5.210245728e-15 23 
0.3574112649 2.168482258e-14 4.848897564e-15 20 
0.3578295343 1.189910229e-14 3.587753113e-15 11 
0.3582478038 2.262248306e-14 4.93671043e-15 21 
0.3586660733 2.04462606e-14 4.69077789e-15 19 
0.3590843428 1.936940991e-14 4.565484282e-15 18 
0.3595026122 3.102026829e-14 5.76043061e-15 29 
0.3599208817 1.068184142e-14 3.377994263e-15 10 
0.3603391512 2.461981003e-14 5.133641197e-15 23 
0.3607574206 2.345682609e-14 5.001116675e-15 22 
0.3611756901 2.87058212e-14 5.524563925e-15 27 
0.3615939596 2.339300512e-14 4.987538682e-15 22 
0.3620122291 2.223486843e-14 4.852139869e-15 21 
0.3624304985 2.539045488e-14 5.182891042e-15 24 
0.362848768 1.686978827e-14 4.217571084e-15 16 
0.3632670375 2.527228337e-14 5.158816276e-15 24 
0.363685307 1.679945409e-14 4.200000544e-15 16 
0.3641035764 1.47057991e-14 3.93034019e-15 14 
0.3645218459 2.093589546e-14 4.681554598e-15 20 
0.3649401154 1.568790086e-14 4.050703152e-15 15 
0.3653583849 1.87476663e-14 4.419064044e-15 18 
0.3657766543 1.770661583e-14 4.294648091e-15 17 
0.3661949238 1.557900205e-14 4.022636989e-15 15 
0.3666131933 2.591742632e-14 5.18368905e-15 25 
0.3670314627 2.683021642e-14 5.262029641e-15 26 
0.3674497322 1.641840868e-14 4.104731979e-15 16 
0.3678680017 2.052665878e-14 4.590036776e-15 20 
0.3682862712 1.958677447e-14 4.493572851e-15 19 
0.3687045406 1.641758255e-14 4.104498794e-15 16 
0.3691228101 1.8294102e-14 4.31218082e-15 18 
0.3695410796 1.527281761e-14 3.943493013e-15 15 
0.3699593491 2.13569573e-14 4.660742937e-15 21 
0.3703776185 2.432718011e-14 4.966139607e-15 24 
0.370795888 1.917768742e-14 4.399958859e-15 19 
0.3712141575 2.52041411e-14 5.041174217e-15 25 
0.371632427 3.4153324e-14 5.857492034e-15 34 
0.3720506964 1.509984491e-14 3.899055549e-15 15 
0.3724689659 2.400862091e-14 4.900978494e-15 24 
0.3728872354 1.798321796e-14 4.238911791e-15 18 
0.3733055048 2.295354809e-14 4.786310103e-15 23 
0.3737237743 1.789176118e-14 4.217307096e-15 18 
0.3741420438 1.88059521e-14 4.314724173e-15 19 
0.3745603133 2.56095273e-14 5.022758198e-15 26 
0.3749785827 1.670106836e-14 4.050717459e-15 17 
0.3753968522 2.061236897e-14 4.498377021e-15 21 
0.3758151217 1.571624928e-14 3.929313908e-15 16 
0.3762333912 1.562542125e-14 3.906751102e-15 16 
0.3766516606 1.852826519e-14 4.251088699e-15 19 
0.3770699301 1.458094033e-14 3.765133948e-15 15 
0.3774881996 1.635418148e-14 3.966832781e-15 17 
0.377906469 1.924729936e-14 4.30411981e-15 20 
0.3783247385 1.825058278e-14 4.187280398e-15 19 
0.378743008 1.911625098e-14 4.27490737e-15 20 
0.3791612775 2.395129306e-14 4.790543043e-15 25 
0.3795795469 1.622648664e-14 3.935764909e-15 17 
0.3799978164 1.708447277e-14 4.02725033e-15 18 
0.3804160859 2.079404699e-14 4.433899424e-15 22 
0.3808343554 1.797444002e-14 4.124182626e-15 19 
0.3812526248 2.554790859e-14 4.917315128e-15 27 
0.3816708943 2.539287335e-14 4.887381982e-15 27 
0.3820891638 1.975417732e-14 4.311155034e-15 21 
0.3825074333 1.589559273e-14 3.85572184e-15 17 
0.3829257027 1.863859454e-14 4.168229789e-15 20 
0.3833439722 1.761293151e-14 4.041046752e-15 19 
0.3837622417 1.856335522e-14 4.151627145e-15 20 
0.3841805111 1.842398044e-14 4.120459284e-15 20 
0.3845987806 1.849735585e-14 4.136460667e-15 20 
0.3850170501 1.57022579e-14 3.808757679e-15 17 
0.3854353196 2.018011589e-14 4.302871545e-15 22 
0.385853589 1.36550492e-14 3.526713925e-15 15 
0.3862718585 1.817947009e-14 4.06560419e-15 20 
0.386690128 2.271928049e-14 4.544500682e-15 25 
0.3871083975 2.15774106e-14 4.405081787e-15 24 
0.3875266669 1.818659223e-14 4.066858237e-15 20 
0.3879449364 2.060618109e-14 4.297699913e-15 23 
0.3883632059 1.787481383e-14 3.997646078e-15 20 
0.3887814754 2.052252631e-14 4.280105814e-15 23 
0.3891997448 1.152408151e-14 3.196868065e-15 13 
0.3896180143 2.036750673e-14 4.248030704e-15 23 
0.3900362838 1.501138563e-14 3.641454789e-15 17 
0.3904545532 1.571124353e-14 3.703943794e-15 18 
0.3908728227 1.926960883e-14 4.109071228e-15 22 
0.3912910922 3.057047114e-14 5.168526491e-15 35 
0.3917093617 2.090841975e-14 4.268871951e-15 24 
0.3921276311 2.406369823e-14 4.548272545e-15 28 
0.3925459006 1.73745889e-14 3.885619574e-15 20 
0.3929641701 1.72964996e-14 3.86850957e-15 20 
0.3933824396 1.787833775e-14 3.902377112e-15 21 
0.393800709 2.052645809e-14 4.190670402e-15 24 
0.3942189785 1.959369603e-14 4.086483294e-15 23 
0.394637248 1.858308655e-14 3.962706557e-15 22 
0.3950555175 2.205919925e-14 4.327244839e-15 26 
0.3954737869 2.087246869e-14 4.175299994e-15 25 
0.3958920564 1.847996259e-14 3.940952351e-15 22 
0.3963103259 1.673866034e-14 3.744078035e-15 20 
0.3967285953 2.245647185e-14 4.322849993e-15 27 
0.3971468648 1.908905153e-14 3.981197458e-15 23 
0.3975651343 9.141646679e-15 2.757090343e-15 11 
0.3979834038 1.888658679e-14 3.93903509e-15 23 
0.3984016732 1.486873162e-14 3.505081823e-15 18 
0.3988199427 1.138849134e-14 3.044649531e-15 14 
0.3992382122 2.603852602e-14 4.604431892e-15 32 
0.3996564817 1.544228942e-14 3.543100681e-15 19 
0.4000747511 2.257599663e-14 4.267754717e-15 28 
0.4004930206 1.369545517e-14 3.322810029e-15 17 
0.4009112901 1.679718375e-14 3.666108659e-15 21 
0.4013295595 1.277676564e-14 3.194714646e-15 16 
0.401747829 1.989344147e-14 3.980183587e-15 25 
0.4021660985 1.487905322e-14 3.414126351e-15 19 
0.402584368 1.652731329e-14 3.607487983e-15 21 
0.4030026374 1.021645842e-14 2.834709938e-15 13 
0.4034209069 1.876059817e-14 3.830459434e-15 24 
0.4038391764 1.315527595e-14 3.191789466e-15 17 
0.4042574459 1.561878222e-14 3.493303196e-15 20 
0.4046757153 1.851928181e-14 3.781280228e-15 24 
0.4050939848 9.220538986e-15 2.66237219e-15 12 
0.4055122543 1.457524904e-14 3.345313651e-15 19 
0.4059305238 1.366781066e-14 3.222088451e-15 18 
0.4063487932 1.592784815e-14 3.477038195e-15 21 
0.4067670627 1.510835153e-14 3.379334061e-15 20 
0.4071853322 1.968479068e-14 3.862158544e-15 26 
0.4076036016 1.570840747e-14 3.42867225e-15 21 
0.4080218711 1.856419308e-14 3.713796798e-15 25 
0.4084401406 1.716412096e-14 3.579981903e-15 23 
0.4088584101 1.340501236e-14 3.160585809e-15 18 
0.4092766795 2.363794349e-14 4.180219208e-15 32 
0.409694949 8.721012597e-15 2.519147428e-15 12 
0.4101132185 1.829218195e-14 3.659759272e-15 25 
0.410531488 1.758835565e-14 3.591359099e-15 24 
0.4109497574 1.241267593e-14 3.011058721e-15 17 
0.4113680269 1.434070215e-14 3.20767873e-15 20 
0.4117862964 1.516309145e-14 3.310168203e-15 21 
0.4122045659 1.581503463e-14 3.372918412e-15 22 
0.4126228353 1.355642299e-14 3.111039486e-15 19 
0.4130411048 1.699571452e-14 3.470324537e-15 24 
0.4134593743 1.048866424e-14 2.708845432e-15 15 
0.4138776437 1.493242376e-14 3.25983414e-15 21 
0.4142959132 2.403689838e-14 4.123578843e-15 34 
0.4147141827 1.55082938e-14 3.307691531e-15 22 
0.4151324522 1.612760326e-14 3.364112779e-15 23 
0.4155507216 1.383289135e-14 3.093884805e-15 20 
0.4159689911 1.515266928e-14 3.232314738e-15 22 
0.4163872606 1.449628055e-14 3.164163106e-15 21 
0.4168055301 1.230426492e-14 2.901615571e-15 18 
0.4172237995 1.0800475e-14 2.700645054e-15 16 
0.417642069 1.767967673e-14 3.468438708e-15 26 
0.4180603385 1.68443533e-14 3.37100991e-15 25 
0.418478608 1.54889036e-14 3.230993134e-15 23 
0.4188968774 1.335507068e-14 2.987314439e-15 20 
0.4193151469 1.535604493e-14 3.203584198e-15 23 
0.4197334164 1.668659522e-14 3.3389588e-15 25 
0.4201516858 1.784085703e-14 3.434976741e-15 27 
0.4205699553 1.334032109e-14 2.98383982e-15 20 
0.4209882248 1.637223464e-14 3.275843335e-15 25 
0.4214064943 1.378035871e-14 3.008025276e-15 21 
0.4218247637 1.092915119e-14 2.651435882e-15 17 
0.4222430332 1.226205975e-14 2.813991055e-15 19 
0.4226613027 1.088770815e-14 2.64107296e-15 17 
0.4230795722 1.668275035e-14 3.273328475e-15 26 
0.4234978416 1.595419009e-14 3.192183202e-15 25 
0.4239161111 1.130874725e-14 2.666192749e-15 18 
0.4243343806 1.262921566e-14 2.825384284e-15 20 
0.42475265 8.272699062e-15 2.295144702e-15 13 
0.4251709195 1.770762724e-14 3.348227959e-15 28 
0.425589189 1.558512406e-14 3.117639043e-15 25 
0.4260074585 1.236275e-14 2.76484037e-15 20 
0.4264257279 1.433011057e-14 2.989087812e-15 23 
0.4268439974 2.016946995e-14 3.512967845e-15 33 
0.4272622669 1.473199378e-14 3.008106513e-15 24 
0.4276805364 1.826067577e-14 3.335257852e-15 30 
0.4280988058 1.746449632e-14 3.244080438e-15 29 
0.4285170753 1.613320308e-14 3.105988604e-15 27 
0.4289353448 1.740593941e-14 3.233878133e-15 29 
0.4293536143 1.802923252e-14 3.292961267e-15 30 
0.4297718837 1.368682913e-14 2.855084826e-15 23 
0.4301901532 1.549199368e-14 3.039572985e-15 26 
0.4306084227 1.299887449e-14 2.772718335e-15 22 
0.4310266921 1.710418305e-14 3.177459176e-15 29 
0.4314449616 1.523169769e-14 2.988257892e-15 26 
0.4318632311 1.169637093e-14 2.616452591e-15 20 
0.4322815006 1.571654828e-14 3.025595796e-15 27 
0.43269977 1.382790785e-14 2.82373287e-15 24 
0.4331180395 1.097794058e-14 2.519207101e-15 19 
0.433536309 1.53993461e-14 2.965182343e-15 27 
0.4339545785 1.245878011e-14 2.657942821e-15 22 
0.4343728479 1.35555047e-14 2.768025229e-15 24 
0.4347911174 1.689341952e-14 3.085463258e-15 30 
0.4352093869 1.007085106e-14 2.374367308e-15 18 
0.4356276564 1.964320052e-14 3.321593845e-15 35 
0.4360459258 1.61572553e-14 3.003070155e-15 29 
0.4364641953 1.056897079e-14 2.425956573e-15 19 
0.4368824648 8.387375884e-15 2.166368558e-15 15 
0.4373007342 1.921915852e-14 3.250079609e-15 35 
0.4377190037 1.372642556e-14 2.746523139e-15 25 
0.4381372732 9.317917785e-15 2.26055142e-15 17 
0.4385555427 1.307911138e-14 2.671037494e-15 24 
0.4389738121 1.188534885e-14 2.534657531e-15 22 
0.4393920816 1.287362742e-14 2.628807378e-15 24 
0.4398103511 7.541622652e-15 2.0171009e-15 14 
0.4402286206 1.441317454e-14 2.774892448e-15 27 
0.44064689 1.165959792e-14 2.486725003e-15 22 
0.4410651595 1.684269401e-14 2.978742149e-15 32 
0.441483429 1.099723229e-14 2.4012739e-15 21 
0.4419016985 1.253015518e-14 2.559153046e-15 24 
0.4423199679 1.514195405e-14 2.812953153e-15 29 
0.4427382374 1.152030182e-14 2.457469193e-15 22 
0.4431565069 9.305117104e-15 2.19430538e-15 18 
0.4435747763 1.386075904e-14 2.668218364e-15 27 
0.4439930458 1.076545559e-14 2.350039572e-15 21 
0.4444113153 1.273199383e-14 2.547327255e-15 25 
0.4448295848 1.060042283e-14 2.314182023e-15 21 
0.4452478542 1.828119471e-14 3.04830664e-15 36 
0.4456661237 1.296883129e-14 2.544149227e-15 26 
0.4460843932 1.354565186e-14 2.607424655e-15 27 
0.4465026627 1.395804575e-14 2.638428152e-15 28 
0.4469209321 9.923278334e-15 2.220141911e-15 20 
0.4473392016 1.237398312e-14 2.475792311e-15 25 
0.4477574711 9.396768777e-15 2.156962646e-15 19 
0.4481757405 9.783859032e-15 2.1884886e-15 20 
0.44859401 4.394105962e-15 1.465924494e-15 9 
0.4490122795 1.445731432e-14 2.640798526e-15 30 
0.449430549 1.202324738e-14 2.405619287e-15 25 
0.4498488184 1.119460815e-14 2.335273008e-15 23 
0.4502670879 1.047694733e-14 2.234844976e-15 22 
0.4506853574 1.482878502e-14 2.66424364e-15 31 
0.4511036269 1.003610941e-14 2.190602891e-15 21 
0.4515218963 1.463893048e-14 2.630311888e-15 31 
0.4519401658 9.84526835e-15 2.149255023e-15 21 
0.4523584353 1.118623848e-14 2.284093977e-15 24 
0.4527767048 1.162274684e-14 2.325010916e-15 25 
0.4531949742 1.171571719e-14 2.343893937e-15 25 
0.4536132437 1.014456293e-14 2.163725296e-15 22 
0.4540315132 1.527993353e-14 2.660918418e-15 33 
0.4544497826 1.06579416e-14 2.223244246e-15 23 
0.4548680521 1.160018471e-14 2.320593162e-15 25 
0.4552863216 1.283946675e-14 2.427358895e-15 28 
0.4557045911 1.225458794e-14 2.359394017e-15 27 
0.4561228605 1.14786301e-14 2.296665469e-15 25 
0.45654113 1.407085411e-14 2.528104143e-15 31 
0.4569593995 1.313146381e-14 2.439641328e-15 29 
0.457377669 1.477455239e-14 2.572588247e-15 33 
0.4577959384 8.887555855e-15 1.988162111e-15 20 
0.4582142079 1.28879871e-14 2.393631321e-15 29 
0.4586324774 9.252946596e-15 2.020080153e-15 21 
0.4590507469 1.240872445e-14 2.345944432e-15 28 
0.4594690163 1.145614242e-14 2.247494518e-15 26 
0.4598872858 7.958404836e-15 1.876146214e-15 18 
0.4603055553 8.245641282e-15 1.892468882e-15 19 
0.4607238247 6.960999118e-15 1.740658583e-15 16 
0.4611420942 1.206642943e-14 2.281127225e-15 28 
0.4615603637 1.158145591e-14 2.229586767e-15 27 
0.4619786332 1.418791467e-14 2.470612225e-15 33 
0.4623969026 1.030538907e-14 2.104052131e-15 24 
0.4628151721 8.089035283e-15 1.856463626e-15 19 
0.4632334416 1.015533368e-14 2.073543056e-15 24 
0.4636517111 1.357414415e-14 2.400012674e-15 32 
0.4640699805 1.141542528e-14 2.197449604e-15 27 
0.46448825 1.143385843e-14 2.201099476e-15 27 
0.4649065195 1.089138411e-14 2.136642461e-15 26 
0.465324789 1.008324773e-14 2.058720897e-15 24 
0.4657430584 1.045961245e-14 2.092424859e-15 25 
0.4661613279 7.512721106e-15 1.771246413e-15 18 
0.4665795974 1.238331394e-14 2.261215941e-15 30 
0.4669978668 9.488693983e-15 1.979041368e-15 23 
0.4674161363 8.196635357e-15 1.833269197e-15 20 
0.4678344058 1.347947049e-14 2.347247202e-15 33 
0.4682526753 9.435935526e-15 1.968242918e-15 23 
0.4686709447 7.723590775e-15 1.772417963e-15 19 
0.4690892142 8.446549627e-15 1.843611155e-15 21 
0.4695074837 1.16609656e-14 2.165936378e-15 29 
0.4699257532 1.045534115e-14 2.051106288e-15 26 
0.4703440226 1.287291604e-14 2.276107726e-15 32 
0.4707622921 1.282156149e-14 2.267184166e-15 32 
0.4711805616 1.072979073e-14 2.065437912e-15 27 
0.4715988311 9.109123666e-15 1.899728399e-15 23 
0.4720171005 9.478323852e-15 1.93521156e-15 24 
0.47243537 8.707774295e-15 1.857210329e-15 22 
0.4728536395 1.297066648e-14 2.258547874e-15 33 
0.4732719089 8.569480657e-15 1.82756668e-15 22 
0.4736901784 9.754332584e-15 1.951284376e-15 25 
0.4741084479 8.529033569e-15 1.818749729e-15 22 
0.4745267174 8.463692095e-15 1.804891799e-15 22 
0.4749449868 1.080998214e-14 2.043141685e-15 28 
0.4753632563 4.599637205e-15 1.327947542e-15 12 
0.4757815258 1.043166529e-14 2.007876107e-15 27 
0.4761997953 1.034502711e-14 1.991290849e-15 27 
0.4766180647 1.302800137e-14 2.23460841e-15 34 
0.4770363342 1.597104853e-14 2.464719122e-15 42 
0.4774546037 9.895544722e-15 1.94091155e-15 26 
0.4778728731 9.842629328e-15 1.930600573e-15 26 
0.4782911426 8.762794047e-15 1.82752989e-15 23 
0.4787094121 9.823191021e-15 1.926846522e-15 26 
0.4791276816 8.601315141e-15 1.793861637e-15 23 
0.479545951 1.161775286e-14 2.086902496e-15 31 
0.4799642205 9.730118009e-15 1.908438384e-15 26 
0.48038249 8.181204189e-15 1.744472339e-15 22 
0.4808007595 1.368952434e-14 2.250889515e-15 37 
0.4812190289 1.187208403e-14 2.099097212e-15 32 
0.4816372984 8.508357628e-15 1.774420352e-15 23 
0.4820555679 7.737610644e-15 1.68876956e-15 21 
0.4824738374 8.103085436e-15 1.727757836e-15 22 
0.4828921068 1.208738784e-14 2.104432388e-15 33 
0.4833103763 7.316791979e-15 1.636224929e-15 20 
0.4837286458 8.44066776e-15 1.760286084e-15 23 
0.4841469152 9.816932384e-15 1.889576135e-15 27 
0.4845651847 6.904523723e-15 1.584160244e-15 19 
0.4849834542 5.454372669e-15 1.408466929e-15 15 
0.4854017237 1.047915845e-14 1.946153692e-15 29 
0.4858199931 1.117477639e-14 2.007229888e-15 31 
0.4862382626 7.554143689e-15 1.648558773e-15 21 
0.4866565321 1.00171562e-14 1.893207681e-15 28 
0.4870748016 8.299461175e-15 1.730695096e-15 23 
0.487493071 1.246528782e-14 2.107252128e-15 35 
0.4879113405 6.753367284e-15 1.549440262e-15 19 
0.48832961 1.101904902e-14 1.979244051e-15 31 
0.4887478795 9.241238437e-15 1.812548276e-15 26 
0.4891661489 8.849168748e-15 1.770042307e-15 25 
0.4895844184 1.095626566e-14 1.967886085e-15 31 
0.4900026879 8.780223989e-15 1.756232274e-15 25 
0.4904209573 5.960041918e-15 1.445657258e-15 17 
0.4908392268 9.794511202e-15 1.851188966e-15 28 
0.4912574963 8.771000991e-15 1.75430067e-15 25 
0.4916757658 1.115739606e-14 1.972471018e-15 32 
0.4920940352 1.008081506e-14 1.872031545e-15 29 
0.4925123047 8.350830285e-15 1.704687176e-15 24 
0.4929305742 8.687224969e-15 1.737598559e-15 25 
0.4933488437 6.583025884e-15 1.510368548e-15 19 
0.4937671131 1.036474081e-14 1.892407621e-15 30 
0.4941853826 1.001494764e-14 1.859806345e-15 29 
0.4946036521 9.627834987e-15 1.819579753e-15 28 
0.4950219216 7.204686377e-15 1.572248282e-15 21 
0.495440191 7.171253061e-15 1.564933315e-15 21 
0.4958584605 8.212972297e-15 1.676516334e-15 24 
0.49627673 1.025490353e-14 1.872346954e-15 30 
0.4966949994 8.181044149e-15 1.67000384e-15 24 
0.4971132689 7.812618378e-15 1.629117107e-15 23 
0.4975315384 9.853829234e-15 1.829868813e-15 29 
0.4979498079 7.792182493e-15 1.624829017e-15 23 
0.4983680773 5.423646323e-15 1.355972527e-15 16 
0.4987863468 8.442464314e-15 1.688567021e-15 25 
0.4992046163 1.013153445e-14 1.84981251e-15 30 
0.4996228858 8.099046804e-15 1.653266683e-15 24 
0.5000411552 6.735298233e-15 1.506094871e-15 20 
0.5004594247 5.695888634e-15 1.3814722e-15 17 
0.5008776942 1.141640491e-14 1.957947538e-15 34 
0.5012959636 6.352141401e-15 1.457323304e-15 19 
0.5017142331 1.036040606e-14 1.860806967e-15 31 
0.5021325026 1.132551749e-14 1.942336148e-15 34 
0.5025507721 8.653232288e-15 1.697077209e-15 26 
0.5029690415 8.333441272e-15 1.666726022e-15 25 
0.503387311 5.663973008e-15 1.373736118e-15 17 
0.5038055805 8.952633935e-15 1.722955392e-15 27 
0.50422385 9.925162482e-15 1.812111458e-15 30 
0.5046421194 9.932193705e-15 1.813387975e-15 30 
0.5050603889 8.601926149e-15 1.687003542e-15 26 
0.5054786584 9.89280096e-15 1.806195118e-15 30 
0.5058969279 7.912810155e-15 1.615226677e-15 24 
0.5063151973 8.876672186e-15 1.70833737e-15 27 
0.5067334668 1.117117178e-14 1.915859492e-15 34 
0.5071517363 1.245885313e-14 2.021117363e-15 38 
0.5075700057 8.526017914e-15 1.672120831e-15 26 
0.5079882752 1.014885945e-14 1.822808061e-15 31 
0.5084065447 4.575576599e-15 1.222886189e-15 14 
0.5088248142 9.470097167e-15 1.758573122e-15 29 
0.5092430836 8.151790917e-15 1.630367133e-15 25 
0.5096613531 1.14000634e-14 1.926981819e-15 35 
0.5100796226 9.745586726e-15 1.779299466e-15 30 
0.5104978921 1.332480479e-14 2.081000406e-15 41 
0.5109161615 1.038533439e-14 1.835896199e-15 32 
0.511334431 8.759910871e-15 1.685858184e-15 27 
0.5117527005 1.004052495e-14 1.803345379e-15 31 
0.51217097 1.034547276e-14 1.828846892e-15 32 
0.5125892394 8.722724594e-15 1.67869904e-15 27 
0.5130075089 8.710710345e-15 1.676385021e-15 27 
0.5134257784 8.057663648e-15 1.611536164e-15 25 
0.5138440478 1.062095872e-14 1.848877072e-15 33 
0.5142623173 7.394504851e-15 1.541866258e-15 23 
0.5146805868 8.993958481e-15 1.699704666e-15 28 
0.5150988563 7.701223938e-15 1.572009449e-15 24 
0.5155171257 8.335293312e-15 1.634690776e-15 26 
0.5159353952 8.640916411e-15 1.662946901e-15 27 
0.5163536647 8.309628374e-15 1.629653084e-15 26 
0.5167719342 5.435060899e-15 1.318197787e-15 17 
0.5171902036 8.618865376e-15 1.658703676e-15 27 
0.5176084731 8.92784513e-15 1.687205735e-15 28 
0.5180267426 9.877270416e-15 1.774011384e-15 31 
0.5184450121 7.318483593e-15 1.526009697e-15 23 
0.5188632815 8.903571147e-15 1.682617984e-15 28 
0.519281551 7.622280653e-15 1.555892051e-15 24 
0.5196998205 8.254216961e-15 1.618786444e-15 26 
0.5201180899 7.29352461e-15 1.52080571e-15 23 
0.5205363594 9.191677184e-15 1.706853014e-15 29 
0.5209546289 1.108149643e-14 1.873115778e-15 35 
0.5213728984 6.326320828e-15 1.414608816e-15 20 
0.5217911678 6.637785212e-15 1.448483937e-15 21 
0.5222094373 1.010294408e-14 1.785965281e-15 32 
0.5226277068 6.311525477e-15 1.411300467e-15 20 
0.5230459763 8.194680669e-15 1.607109146e-15 26 
0.5234642457 5.668670769e-15 1.33611854e-15 18 
0.5238825152 9.442439228e-15 1.723945821e-15 30 
0.5243007847 5.97440267e-15 1.370622055e-15 19 
0.5247190541 7.855146067e-15 1.57102934e-15 25 
0.5251373236 1.004779327e-14 1.776215876e-15 32 
0.5255555931 8.469919779e-15 1.630036898e-15 27 
0.5259738626 9.090091381e-15 1.687987719e-15 29 
0.526392132 6.264686273e-15 1.400826559e-15 20 
0.5268104015 7.511294395e-15 1.533236677e-15 24 
0.527228671 1.063588947e-14 1.824040396e-15 34 
0.5276469405 7.813518614e-15 1.562704069e-15 25 
0.5280652099 6.86891057e-15 1.464456757e-15 22 
0.5284834794 8.738992753e-15 1.651514708e-15 28 
0.5289017489 1.122517045e-14 1.870862193e-15 36 
0.5293200184 8.413732928e-15 1.619224045e-15 27 
0.5297382878 1.152033767e-14 1.893932322e-15 37 
0.5301565573 1.08911983e-14 1.840949213e-15 35 
0.5305748268 6.843089635e-15 1.45895233e-15 22 
0.5309930962 1.05661195e-14 1.812075231e-15 34 
0.5314113657 9.626215388e-15 1.728919841e-15 31 
0.5318296352 7.137265556e-15 1.488223518e-15 23 
0.5322479047 9.612462881e-15 1.726450365e-15 31 
0.5326661741 1.270906147e-14 1.984823058e-15 41 
0.5330844436 1.115028718e-14 1.858382207e-15 36 
0.5335027131 9.904389863e-15 1.750866538e-15 32 
0.5339209826 8.351591693e-15 1.607265658e-15 27 
0.534339252 8.654446274e-15 1.635537582e-15 28 
0.5347575215 1.018935822e-14 1.773740512e-15 33 
0.535175791 6.171641914e-15 1.380021551e-15 20 
0.5355940605 1.203151042e-14 1.926585078e-15 39 
0.5360123299 8.942118198e-15 1.660511463e-15 29 
0.5364305994 1.047333404e-14 1.796163496e-15 34 
0.5368488689 8.927357493e-15 1.657770368e-15 29 
0.5372671383 6.151174803e-15 1.375445805e-15 20 
0.5376854078 6.76178862e-15 1.441619484e-15 22 
0.5381036773 5.526585095e-15 1.302629808e-15 18 
0.5385219468 8.596766404e-15 1.624637869e-15 28 
0.5389402162 1.012215977e-14 1.762043084e-15 33 
0.5393584857 7.358702145e-15 1.502090068e-15 24 
0.5397767552 6.126465604e-15 1.369920183e-15 20 
0.5401950247 8.881993503e-15 1.649345673e-15 29 
0.5406132941 9.48892688e-15 1.704262908e-15 31 
0.5410315636 7.644328545e-15 1.528866447e-15 25 
0.5414498331 1.130644952e-14 1.858771127e-15 37 
0.5418681026 9.473050239e-15 1.701411747e-15 31 
0.542286372 1.037656773e-14 1.779568458e-15 34 
0.5427046415 7.627188233e-15 1.525439012e-15 25 
0.543122911 7.31909844e-15 1.494005851e-15 24 
0.5435411804 1.310067306e-14 1.997835315e-15 43 
0.5439594499 1.035305197e-14 1.775535164e-15 34 
0.5443777194 9.431129891e-15 1.693882522e-15 31 
0.5447959889 1.034103006e-14 1.773473546e-15 34 
0.5452142583 1.00295723e-14 1.745925563e-15 33 
0.5456325278 1.032661737e-14 1.771001798e-15 34 
0.5460507973 9.104054628e-15 1.662166789e-15 30 
0.5464690668 9.703327376e-15 1.715323399e-15 32 
0.5468873362 8.184549648e-15 1.575118512e-15 27 
0.5473056057 9.694710257e-15 1.713800113e-15 32 
0.5477238752 9.992926861e-15 1.739546711e-15 33 
0.5481421446 8.47116712e-15 1.600901749e-15 28 
0.5485604141 9.068787093e-15 1.655727327e-15 30 
0.5489786836 7.853340596e-15 1.540168196e-15 26 
0.5493969531 6.943851858e-15 1.447894159e-15 23 
0.5498152225 9.96178064e-15 1.734124565e-15 33 
0.550233492 1.055562752e-14 1.784227477e-15 35 
0.5506517615 9.042088548e-15 1.65085269e-15 30 
0.551070031 1.204869474e-14 1.905066736e-15 40 
0.5514883004 9.632727228e-15 1.702842295e-15 32 
0.5519065699 8.11877772e-15 1.562460745e-15 27 
0.5523248394 8.416088766e-15 1.590492152e-15 28 
0.5527431089 7.807940678e-15 1.531263805e-15 26 
0.5531613783 8.707713796e-15 1.616982121e-15 29 
0.5535796478 8.998278598e-15 1.642853915e-15 30 
0.5539979173 1.198956339e-14 1.89571691e-15 40 
0.5544161867 8.38718659e-15 1.585029642e-15 28 
0.5548344562 7.783965144e-15 1.526561592e-15 26 
0.5552527257 7.776364307e-15 1.525070785e-15 26 
0.5556709952 8.669654508e-15 1.609914673e-15 29 
0.5560892646 6.871313798e-15 1.432768132e-15 23 
0.5565075341 1.164216321e-14 1.864238304e-15 39 
0.5569258036 7.160735574e-15 1.461679083e-15 24 
0.5573440731 7.751294149e-15 1.520153959e-15 26 
0.5577623425 9.829386305e-15 1.711076751e-15 33 
0.558180612 1.012116603e-14 1.735765756e-15 34 
0.5585988815 1.040961688e-14 1.759546576e-15 35 
0.559017151 8.916627051e-15 1.627946e-15 30 
0.5594354204 8.909915127e-15 1.626720626e-15 30 
0.5598536899 9.794021695e-15 1.704920431e-15 33 
0.5602719594 8.897431197e-15 1.624441321e-15 30 
0.5606902288 1.155753024e-14 1.850686126e-15 39 
0.5611084983 7.699162215e-15 1.509930012e-15 26 
0.5615267678 1.005919651e-14 1.725138167e-15 34 
0.5619450373 7.686901485e-15 1.507525702e-15 26 
0.5623633067 8.863970768e-15 1.618332339e-15 30 
0.5627815762 1.003690752e-14 1.721315763e-15 34 
0.5631998457 1.002911529e-14 1.719979317e-15 34 
0.5636181152 7.957832952e-15 1.531485939e-15 27 
0.5640363846 9.424148861e-15 1.665970299e-15 32 
0.5644546541 1.08878551e-14 1.789952749e-15 37 
0.5648729236 8.233013716e-15 1.555893707e-15 28 
0.5652911931 9.987469421e-15 1.712837566e-15 34 
0.5657094625 1.056762157e-14 1.761271075e-15 36 
0.566127732 8.80175865e-15 1.606974135e-15 30 
0.5665460015 7.036189802e-15 1.436256677e-15 24 
0.5669642709 7.611219246e-15 1.492683626e-15 26 
0.5673825404 8.486968021e-15 1.575991425e-15 29 
0.5678008099 9.646340097e-15 1.679213824e-15 33 
0.5682190794 7.303630752e-15 1.460727152e-15 25 
0.5686373488 1.079791704e-14 1.775168497e-15 37 
0.5690556183 1.079282055e-14 1.774329704e-15 37 
0.5694738878 7.5761023e-15 1.485796906e-15 26 
0.5698921573 9.314879797e-15 1.646655923e-15 32 
0.5703104267 1.250191239e-14 1.906526268e-15 43 
0.5707286962 1.10392788e-14 1.79081124e-15 38 
0.5711469657 1.044732549e-14 1.741225099e-15 36 
0.5715652351 1.072995542e-14 1.763996824e-15 37 
0.5719835046 6.374654953e-15 1.35908404e-15 22 
0.5724017741 1.041700291e-14 1.73617258e-15 36 
0.5728200436 7.226108278e-15 1.445225154e-15 25 
0.573238313 9.247378158e-15 1.634724615e-15 32 
0.5736565825 9.810709539e-15 1.682529962e-15 34 
0.574074852 8.935121113e-15 1.604799554e-15 31 
0.5744931215 8.646203178e-15 1.578579208e-15 30 
0.5749113909 8.056155457e-15 1.52247659e-15 28 
0.5753296604 9.777528244e-15 1.676836827e-15 34 
0.5757479299 7.181362439e-15 1.436277203e-15 25 
0.5761661994 1.090053087e-14 1.768307203e-15 38 
0.5765844688 9.175143556e-15 1.621957241e-15 32 
0.5770027383 1.145809886e-14 1.81169364e-15 40 
0.5774210078 8.014796343e-15 1.514658117e-15 28 
0.5778392772 7.433455094e-15 1.457827235e-15 26 
0.5782575467 6.852098576e-15 1.398687908e-15 24 
0.5786758162 6.847534942e-15 1.397752881e-15 24 
0.5790940857 9.688765088e-15 1.66162064e-15 34 
0.5795123551 8.827510477e-15 1.585474699e-15 31 
0.5799306246 6.255144128e-15 1.33360538e-15 22 
0.5803488941 7.962021339e-15 1.50469056e-15 28 
0.5807671636 1.249267319e-14 1.883357409e-15 44 
0.581185433 8.228817549e-15 1.528064589e-15 29 
0.5816037025 8.213296775e-15 1.525181369e-15 29 
0.582021972 7.066894715e-15 1.413391152e-15 25 
0.5824402415 1.129957381e-14 1.786631536e-15 40 
0.5828585109 7.341567501e-15 1.4398111e-15 26 
0.5832767804 9.015253669e-15 1.593696223e-15 32 
0.5836950499 9.007975077e-15 1.592416801e-15 32 
0.5841133193 1.207646275e-14 1.841664433e-15 43 
0.5845315888 9.836292234e-15 1.662653806e-15 35 
0.5849498583 1.064671528e-14 1.727138257e-15 38 
0.5853681278 1.03755189e-14 1.705741992e-15 37 
0.5857863972 9.512510085e-15 1.631396284e-15 34 
0.5862046667 7.277412424e-15 1.427242282e-15 26 
0.5866229362 1.035062152e-14 1.701646991e-15 37 
0.5870412057 8.100926494e-15 1.504320799e-15 29 
0.5874594751 1.031188968e-14 1.695295777e-15 37 
0.5878777446 1.029938148e-14 1.693226935e-15 37 
0.5882960141 8.33404101e-15 1.521593776e-15 30 
0.5887142836 9.171800081e-15 1.596627209e-15 33 
0.589132553 1.054167153e-14 1.710111487e-15 38 
0.5895508225 8.295444484e-15 1.514560293e-15 30 
0.589969092 7.46853803e-15 1.437342274e-15 27 
0.5903873614 1.160961872e-14 1.791435584e-15 42 
0.5908056309 9.381539849e-15 1.608952857e-15 34 
0.5912239004 7.710765163e-15 1.457235789e-15 28 
0.5916421699 7.988278328e-15 1.483416644e-15 29 
0.5920604393 8.79453431e-15 1.554700544e-15 32 
0.5924787088 8.255163189e-15 1.507199546e-15 30 
0.5928969783 9.314232483e-15 1.597419535e-15 34 
0.5933152478 8.496135233e-15 1.525989049e-15 31 
0.5937335172 8.485032829e-15 1.523981687e-15 31 
0.5941517867 8.721008549e-15 1.541696542e-15 32 
0.5945700562 9.278099848e-15 1.591214909e-15 34 
0.5949883256 1.006589694e-14 1.654850543e-15 37 
0.5954065951 9.259512584e-15 1.588027914e-15 34 
0.5958248646 8.44201236e-15 1.516261716e-15 31 
0.5962431341 6.239883194e-15 1.301141492e-15 23 
0.5966614035 1.110001317e-14 1.733580257e-15 41 
0.597079673 1.163080426e-14 1.773724043e-15 43 
0.5974979425 9.437986621e-15 1.59536273e-15 35 
0.597916212 8.905052183e-15 1.550221971e-15 33 
0.5983344814 9.414024801e-15 1.591312129e-15 35 
0.5987527509 1.102622899e-14 1.722065278e-15 41 
0.5991710204 6.959191015e-15 1.364859497e-15 26 
0.5995892899 8.330583832e-15 1.496243072e-15 31 
0.6000075593 6.678258582e-15 1.335686074e-15 25 
0.6004258288 6.957544704e-15 1.364529577e-15 26 
0.6008440983 6.42333744e-15 1.311189043e-15 24 
0.6012623677 7.71879313e-15 1.433401508e-15 29 
0.6016806372 7.447193475e-15 1.407451608e-15 28 
0.6020989067 1.118143414e-14 1.725385619e-15 42 
0.6025171762 7.964087289e-15 1.45410487e-15 30 
0.6029354456 8.218938032e-15 1.476229222e-15 31 
0.6033537151 1.191191724e-14 1.775795391e-15 45 
0.6037719846 8.966383797e-15 1.537795579e-15 34 
0.6041902541 8.699857178e-15 1.514537463e-15 33 
0.6046085235 1.079709339e-14 1.686309892e-15 41 
0.605026793 1.079011586e-14 1.685181765e-15 41 
0.6054450625 1.182131958e-14 1.762290425e-15 45 
0.605863332 6.295654035e-15 1.285160938e-15 24 
0.6062816014 1.020760257e-14 1.634586612e-15 39 
0.6066998709 8.087303273e-15 1.452564879e-15 31 
0.6071181404 6.536523183e-15 1.307358581e-15 25 
0.6075364098 8.334899362e-15 1.473476806e-15 32 
0.6079546793 8.595599691e-15 1.496367292e-15 33 
0.6083729488 9.085896607e-15 1.535864409e-15 35 
0.6087912183 8.814163179e-15 1.51167146e-15 34 
0.6092094877 1.009672802e-14 1.61682578e-15 39 
0.6096277572 7.249934978e-15 1.370168864e-15 28 
0.6100460267 7.756285347e-15 1.416173048e-15 30 
0.6104642962 9.009124025e-15 1.522911734e-15 35 
0.6108825656 9.005524148e-15 1.522314069e-15 35 
0.6113008351 6.418068773e-15 1.283665518e-15 25 
0.6117191046 8.456071374e-15 1.472097123e-15 33 
0.6121373741 8.946955798e-15 1.512408537e-15 35 
0.6125556435 7.636458072e-15 1.39431374e-15 30 
0.612973913 9.165413746e-15 1.527686855e-15 36 
0.6133921825 5.629018642e-15 1.200159622e-15 22 
0.6138104519 8.136635073e-15 1.438457886e-15 32 
0.6142287214 9.884841664e-15 1.582905647e-15 39 
0.6146469909 8.3471735e-15 1.453160898e-15 33 
0.6150652604 1.014224821e-14 1.603702384e-15 40 
0.6154835298 8.100543255e-15 1.43211349e-15 32 
0.6159017993 9.571078362e-15 1.552739345e-15 38 
0.6163200688 1.206706756e-14 1.741850871e-15 48 
0.6167383383 9.040829716e-15 1.506918019e-15 36 
0.6171566077 9.544119129e-15 1.54835552e-15 38 
0.6175748772 8.526307263e-15 1.462348692e-15 34 
0.6179931467 8.206336089e-15 1.428673415e-15 33 
0.6184114161 9.970948567e-15 1.576675256e-15 40 
0.6188296856 8.94727513e-15 1.491293853e-15 36 
0.6192479551 9.674137674e-15 1.549247074e-15 39 
0.6196662246 7.416508947e-15 1.354172284e-15 30 
0.620084494 9.133089041e-15 1.501619694e-15 37 
0.6205027635 8.157716628e-15 1.420182536e-15 33 
0.620921033 6.405730404e-15 1.256409837e-15 26 
0.6213393025 9.577545441e-15 1.533748038e-15 39 
0.6217575719 8.585817252e-15 1.451376675e-15 35 
0.6221758414 1.078203647e-14 1.625575049e-15 44 
0.6225941109 6.58836493e-15 1.268046699e-15 27 
0.6230123804 8.763118605e-15 1.460656857e-15 36 
0.6234306498 6.804206056e-15 1.286022043e-15 28 
0.6238489193 9.480388592e-15 1.518193942e-15 39 
0.6242671888 1.117547827e-14 1.647901225e-15 46 
0.6246854582 8.471147098e-15 1.432013818e-15 35 
0.6251037277 9.896269528e-15 1.54562521e-15 41 
0.6255219972 7.481735785e-15 1.343909573e-15 31 
0.6259402667 7.211542714e-15 1.316771642e-15 30 
0.6263585361 7.914318758e-15 1.377838026e-15 33 
0.6267768056 5.032860587e-15 1.098347509e-15 21 
0.6271950751 7.195011967e-15 1.313700827e-15 30 
0.6276133446 8.606133841e-15 1.434485407e-15 36 
0.628031614 6.698820183e-15 1.266084943e-15 28 
0.6284498835 8.79011338e-15 1.445292743e-15 37 
0.628868153 6.896925981e-15 1.280892399e-15 29 
0.6292864225 8.060982535e-15 1.38254817e-15 34 
0.6297046919 9.426113969e-15 1.49055013e-15 40 
0.6301229614 7.10433769e-15 1.297201463e-15 30 
0.6305412309 9.231213445e-15 1.47833787e-15 39 
0.6309595003 9.131440324e-15 1.462329344e-15 39 
0.6313777698 7.987840404e-15 1.370068157e-15 34 
0.6317960393 7.00017685e-15 1.278206353e-15 30 
0.6322143088 8.430553762e-15 1.405245364e-15 36 
0.6326325782 7.190236073e-15 1.291584755e-15 31 
0.6330508477 8.136341297e-15 1.375449004e-15 35 
0.6334691172 9.304174561e-15 1.471291988e-15 40 
0.6338873867 7.643889963e-15 1.330781311e-15 33 
0.6343056561 7.654214396e-15 1.332657915e-15 33 
0.6347239256 8.518513168e-15 1.400614682e-15 37 
0.6351421951 5.316685247e-15 1.108770149e-15 23 
0.6355604646 8.712919881e-15 1.413583297e-15 38 
0.635978734 7.329192876e-15 1.295771321e-15 32 
0.6363970035 8.69863295e-15 1.411261463e-15 38 
0.636815273 9.14301944e-15 1.445780591e-15 40 
0.6372335424 8.669098418e-15 1.406534112e-15 38 
0.6376518119 6.566813077e-15 1.219561943e-15 29 
0.6380700814 9.460758169e-15 1.460015271e-15 42 
0.6384883509 7.444089685e-15 1.296058706e-15 33 
0.6389066203 6.063187603e-15 1.167049217e-15 27 
0.6393248898 6.734677855e-15 1.229787371e-15 30 
0.6397431593 7.610909932e-15 1.305522963e-15 34 
0.6401614288 7.641475452e-15 1.310610482e-15 34 
0.6405796982 8.068181902e-15 1.344860751e-15 36 
0.6409979677 6.252950127e-15 1.181842905e-15 28 
0.6414162372 8.204655533e-15 1.349053753e-15 37 
0.6418345066 6.6438212e-15 1.213214892e-15 30 
0.6422527761 6.219711733e-15 1.175629675e-15 28 
0.6426710456 7.074896896e-15 1.250869039e-15 32 
0.6430893151 6.34139133e-15 1.177694279e-15 29 
0.6435075845 6.156951465e-15 1.163720186e-15 28 
0.643925854 4.622196815e-15 1.008899508e-15 21 
0.6443441235 8.995459857e-15 1.405159857e-15 41 
0.644762393 6.067696466e-15 1.146980608e-15 28 
0.6451806624 5.442355828e-15 1.088704597e-15 25 
0.6455989319 6.1115127e-15 1.155128838e-15 28 
0.6460172014 5.616870523e-15 1.101890673e-15 26 
0.6464354709 6.515656527e-15 1.189818008e-15 30 
0.6468537403 9.267148337e-15 1.413496554e-15 43 
0.6472720098 6.019552583e-15 1.13791725e-15 28 
0.6476902793 7.510370914e-15 1.269766476e-15 35 
0.6481085487 8.326243003e-15 1.333502999e-15 39 
0.6485268182 8.575950113e-15 1.356284287e-15 40 
0.6489450877 7.897737343e-15 1.298660244e-15 37 
0.6493633572 7.721537284e-15 1.287238455e-15 36 
0.6497816266 6.609042649e-15 1.187217556e-15 31 
0.6501998961 7.575597443e-15 1.262835322e-15 36 
0.6506181656 6.526000662e-15 1.172253233e-15 31 
0.6510364351 7.603813796e-15 1.267524024e-15 36 
0.6514547045 7.191044969e-15 1.233489626e-15 34 
0.651872974 6.492765355e-15 1.16636722e-15 31 
0.6522912435 6.308866849e-15 1.15201438e-15 30 
0.652709513 7.717877163e-15 1.269134703e-15 37 
0.6531277824 8.951236845e-15 1.365336013e-15 43 
0.6535460519 7.432003073e-15 1.238859264e-15 36 
0.6539643214 8.077521384e-15 1.293726138e-15 39 
0.6543825908 7.077942276e-15 1.214151611e-15 34 
0.6548008603 5.934311248e-15 1.10218114e-15 29 
0.6552191298 5.138092619e-15 1.027862427e-15 25 
0.6556373993 5.579141893e-15 1.073959263e-15 27 
0.6560556687 5.938642953e-15 1.103124073e-15 29 
0.6564739382 1.045814084e-14 1.464726591e-15 51 
0.6568922077 6.893698302e-15 1.1824793e-15 34 
0.6573104772 8.37041876e-15 1.307589635e-15 41 
0.6577287466 8.07736894e-15 1.277383322e-15 40 
0.6581470161 7.490863301e-15 1.231744534e-15 37 
0.6585652856 9.892724792e-15 1.413558115e-15 49 
0.6589835551 8.432245394e-15 1.30142459e-15 42 
0.6594018245 7.832532501e-15 1.254517072e-15 39 
0.659820094 6.005904005e-15 1.096891323e-15 30 
0.6602383635 8.995645018e-15 1.341380214e-15 45 
0.6606566329 4.798593004e-15 9.796539166e-16 24 
0.6610749024 9.713549606e-15 1.388022953e-15 49 
0.6614931719 8.708420885e-15 1.313214753e-15 44 
0.6619114414 7.906654483e-15 1.25052426e-15 40 
0.6623297108 7.319479118e-15 1.203567684e-15 37 
0.6627479803 9.276748006e-15 1.35349886e-15 47 
0.6631662498 7.812201424e-15 1.235565954e-15 40 
0.6635845193 6.647589877e-15 1.140355143e-15 34 
0.6640027887 6.628605711e-15 1.137087471e-15 34 
0.6644210582 7.771180315e-15 1.228999808e-15 40 
0.6648393277 8.374592819e-15 1.277386937e-15 43 
0.6652575971 8.694314735e-15 1.296422148e-15 45 
0.6656758666 6.106239177e-15 1.079816575e-15 32 
0.6660941361 6.889769995e-15 1.148591937e-15 36 
0.6665124056 7.47982174e-15 1.198056676e-15 39 
0.666930675 6.55178314e-15 1.123866444e-15 34 
0.6673489445 6.154669159e-15 1.088242861e-15 32 
0.667767214 7.262178203e-15 1.178436806e-15 38 
0.6681854835 6.869515581e-15 1.145199625e-15 36 
0.6686037529 6.265393895e-15 1.090921792e-15 33 
0.6690220224 7.923296626e-15 1.222965862e-15 42 
0.6694402919 8.434404706e-15 1.257850069e-15 45 
0.6698585614 7.282912925e-15 1.166561649e-15 39 
0.6702768308 7.110403974e-15 1.153720956e-15 38 
0.6706951003 7.484190306e-15 1.183644751e-15 40 
0.6711133698 6.691192217e-15 1.115598853e-15 36 
0.6715316392 8.005482216e-15 1.221075089e-15 43 
0.6719499087 6.868499208e-15 1.129498703e-15 37 
0.6723681782 5.940648438e-15 1.050439045e-15 32 
0.6727864477 7.392315052e-15 1.169126819e-15 40 
0.6732047171 6.641592993e-15 1.107242879e-15 36 
0.6736229866 7.13222903e-15 1.142454481e-15 39 
0.6740412561 5.656067643e-15 1.016105761e-15 31 
0.6744595256 5.44516451e-15 9.945252982e-16 30 
0.674877795 6.908690366e-15 1.121050915e-15 38 
0.6752960645 4.708182339e-15 9.235477575e-16 26 
0.675714334 6.841933888e-15 1.110151105e-15 38 
0.6761326035 6.888204154e-15 1.117712698e-15 38 
0.6765508729 8.092343489e-15 1.20677465e-15 45 
0.6769691424 6.613788692e-15 1.087641743e-15 37 
0.6773874119 4.975904525e-15 9.40608105e-16 28 
0.6778056813 8.534661984e-15 1.232223268e-15 48 
0.6782239508 8.92733781e-15 1.262873775e-15 50 
0.6786422203 6.884137832e-15 1.102609758e-15 39 
0.6790604898 6.016729396e-15 1.032101693e-15 34 
0.6794787592 7.36599793e-15 1.13695573e-15 42 
0.6798970287 6.529784628e-15 1.073808941e-15 37 
0.6803152982 5.434779665e-15 9.764465773e-16 31 
0.6807335677 6.611079088e-15 1.072855672e-15 38 
0.6811518371 7.352564433e-15 1.134890446e-15 42 
0.6815701066 7.303406268e-15 1.127192938e-15 42 
0.6819883761 6.285139927e-15 1.047841541e-15 36 
0.6824066456 6.037895906e-15 1.021010068e-15 35 
0.682824915 7.724911798e-15 1.15187258e-15 45 
0.6832431845 6.523731534e-15 1.05868954e-15 38 
0.683661454 7.568394711e-15 1.141229199e-15 44 
0.6840797234 4.79692037e-15 9.066909239e-16 28 
0.6844979929 5.969240575e-15 1.009372674e-15 35 
0.6849162624 7.629261393e-15 1.137577229e-15 45 
0.6853345319 8.124083687e-15 1.173180781e-15 48 
0.6857528013 5.93935387e-15 1.004332053e-15 35 
0.6861710708 5.546649715e-15 9.658723714e-16 33 
0.6865893403 5.559463807e-15 9.680385127e-16 33 
0.6870076098 6.402968242e-15 1.038953466e-15 38 
0.6874258792 5.298902634e-15 9.370241979e-16 32 
0.6878441487 8.153298611e-15 1.165050526e-15 49 
0.6882624182 8.605806567e-15 1.193753486e-15 52 
0.6886806876 6.766380306e-15 1.057096176e-15 41 
0.6890989571 6.495636509e-15 1.040445688e-15 39 
0.6895172266 5.934567088e-15 9.894254082e-16 36 
0.6899354961 6.58837448e-15 1.04197109e-15 40 
0.6903537655 7.194378861e-15 1.085007884e-15 44 
0.690772035 7.542088956e-15 1.112355166e-15 46 
0.6911903045 5.038599104e-15 9.051848669e-16 31 
0.691608574 6.829357188e-15 1.054216385e-15 42 
0.6920268434 5.163828726e-15 9.132177342e-16 32 
0.6924451129 5.372315706e-15 9.355947534e-16 33 
0.6928633824 6.142931602e-15 9.967991003e-16 38 
0.6932816519 5.621920139e-15 9.504564762e-16 35 
0.6936999213 5.440125158e-15 9.334107037e-16 34 
0.6941181908 5.91840864e-15 9.733366264e-16 37 
0.6945364603 4.965617419e-15 8.921013719e-16 31 
0.6949547297 5.088256358e-15 8.997766881e-16 32 
0.6953729992 5.828601116e-15 9.58555045e-16 37 
0.6957912687 5.850089625e-15 9.620454429e-16 37 
0.6962095382 5.850474534e-15 9.622472159e-16 37 
0.6966278076 5.512283548e-15 9.319910763e-16 35 
0.6970460771 6.898152315e-15 1.040174741e-15 44 
0.6974643466 7.721436094e-15 1.103515206e-15 49 
0.6978826161 4.679774385e-15 8.546438473e-16 30 
0.6983008855 5.734555436e-15 9.43056593e-16 37 
0.698719155 5.905377581e-15 9.583088193e-16 38 
0.6991374245 5.712564628e-15 9.394441932e-16 37 
0.699555694 6.16882922e-15 9.756647572e-16 40 
0.6999739634 4.802396569e-15 8.62832974e-16 31 
0.7003922329 6.313362869e-15 9.863189624e-16 41 
0.7008105024 5.967167265e-15 9.558906151e-16 39 
0.7012287718 6.255061679e-15 9.77221694e-16 41 
0.7016470413 6.242428992e-15 9.752406265e-16 41 
0.7020653108 5.600726276e-15 9.210593916e-16 37 
0.7024835803 6.209736444e-15 9.700619958e-16 41 
0.7029018497 6.379446686e-15 9.845669527e-16 42 
0.7033201192 4.386362461e-15 8.147921817e-16 29 
0.7037383887 7.089727768e-15 1.034363678e-15 47 
0.7041566582 6.776450999e-15 1.01044262e-15 45 
0.7045749276 6.760670123e-15 1.008115239e-15 45 
0.7049931971 4.450883885e-15 8.128979959e-16 30 
0.7054114666 3.598187037e-15 7.347021474e-16 24 
0.7058297361 5.29920582e-15 8.834428804e-16 36 
0.7062480055 3.699443725e-15 7.401294891e-16 25 
0.706666275 4.56465779e-15 8.200023923e-16 31 
0.7070845445 5.051191215e-15 8.665242428e-16 34 
0.7075028139 5.727751701e-15 9.174260206e-16 39 
0.7079210834 7.046755875e-15 1.017380532e-15 48 
0.7083393529 6.142763945e-15 9.481006013e-16 42 
0.7087576224 4.241356683e-15 7.878970278e-16 29 
0.7091758918 5.863506631e-15 9.273295629e-16 40 
0.7095941613 5.226700127e-15 8.71332165e-16 36 
0.7100124308 5.663417312e-15 9.070602346e-16 39 
0.7104307003 5.618825009e-15 9.000248402e-16 39 
0.7108489697 4.887574299e-15 8.384237329e-16 34 
0.7112672392 4.007987469e-15 7.576254979e-16 28 
0.7116855087 4.574734678e-15 8.089572103e-16 32 
0.7121037781 7.325819076e-15 1.026134686e-15 51 
0.7125220476 5.006865528e-15 8.466266262e-16 35 
0.7129403171 5.231066251e-15 8.601647459e-16 37 
0.7133585866 6.228450704e-15 9.392020924e-16 44 
0.713776856 5.363392232e-15 8.702798305e-16 38 
0.7141951255 6.094402956e-15 9.295919987e-16 43 
0.714613395 5.514264398e-15 8.831937979e-16 39 
0.7150316645 5.624777243e-15 8.895139276e-16 40 
0.7154499339 5.609950523e-15 8.873140065e-16 40 
0.7158682034 4.224640666e-15 7.714983732e-16 30 
0.7162864729 6.714895296e-15 9.694231012e-16 48 
0.7167047424 5.257213326e-15 8.529823457e-16 38 
0.7171230118 5.273837417e-15 8.557115564e-16 38 
0.7175412813 6.222687866e-15 9.278866566e-16 45 
0.7179595508 5.786660008e-15 8.930488312e-16 42 
0.7183778202 5.801662575e-15 8.954150324e-16 42 
0.7187960897 5.110300723e-15 8.403393692e-16 37 
0.7192143592 5.098306172e-15 8.383333556e-16 37 
0.7196326287 3.676597485e-15 7.076830906e-16 27 
0.7200508981 4.899995112e-15 8.168366133e-16 36 
0.7204691676 6.542675911e-15 9.445078913e-16 48 
0.7208874371 6.268448403e-15 9.243670981e-16 46 
0.7213057066 6.647242168e-15 9.498103068e-16 49 
0.721723976 6.535764958e-15 9.435601964e-16 48 
0.7221422455 5.696148738e-15 8.790966305e-16 42 
0.722560515 6.376431817e-15 9.303215342e-16 47 
0.7229787845 5.951032812e-15 8.973418878e-16 44 
0.7233970539 4.868791708e-15 8.116302339e-16 36 
0.7238153234 5.518928612e-15 8.620546915e-16 41 
0.7242335929 4.14929031e-15 7.453814531e-16 31 
0.7246518623 4.412269036e-15 7.68175497e-16 33 
0.7250701318 3.747061311e-15 7.08285097e-16 28 
0.7254884013 4.515780038e-15 7.74565127e-16 34 
0.7259066708 4.890881814e-15 8.041908799e-16 37 
0.7263249402 5.316571287e-15 8.407876212e-16 40 
0.7267432097 4.504818749e-15 7.726990047e-16 34 
0.7271614792 5.563120546e-15 8.585660382e-16 42 
0.7275797487 5.255946767e-15 8.311582023e-16 40 
0.7279980181 4.730948527e-15 7.886197877e-16 36 
0.7284162876 4.454228975e-15 7.639683788e-16 34 
0.7288345571 6.525236991e-15 9.229278078e-16 50 
0.7292528266 5.881613258e-15 8.769064683e-16 45 
0.729671096 3.383699495e-15 6.636901044e-16 26 
0.7300893655 4.290508111e-15 7.469630342e-16 33 
0.730507635 5.458133912e-15 8.423285524e-16 42 
0.7309259044 6.374370149e-15 9.107141223e-16 49 
0.7313441739 4.923875824e-15 7.988520066e-16 38 
0.7317624434 4.128182947e-15 7.298836194e-16 32 
0.7321807129 6.190057999e-15 8.935313347e-16 48 
0.7325989823 4.378776858e-15 7.510582967e-16 34 
0.7330172518 4.366401294e-15 7.489238265e-16 34 
0.7334355213 5.505722251e-15 8.397001496e-16 43 
0.7338537908 4.334664748e-15 7.434532456e-16 34 
0.7342720602 4.742841363e-15 7.798116032e-16 37 
0.7346903297 5.353261198e-15 8.261277118e-16 42 
0.7351085992 5.099693474e-15 8.064317742e-16 40 
0.7355268686 4.695804493e-15 7.721023493e-16 37 
0.7359451381 5.966008479e-15 8.703142158e-16 47 
0.7363634076 5.078583069e-15 8.031075843e-16 40 
0.7367816771 3.030658504e-15 6.186912052e-16 24 
0.7371999465 6.078927417e-15 8.775209445e-16 48 
0.737618216 4.784020589e-15 7.761425749e-16 38 
0.7380364855 4.018542696e-15 7.104434392e-16 32 
0.738454755 5.916954499e-15 8.631610317e-16 47 
0.7388730244 6.286563779e-15 8.891626914e-16 50 
0.7392912939 5.390695258e-15 8.221701827e-16 43 
0.7397095634 4.109755064e-15 7.154840303e-16 33 
0.7401278329 5.619029821e-15 8.3770185e-16 45 
0.7405461023 3.621034658e-15 6.724899813e-16 29 
0.7409643718 3.976281931e-15 7.029964487e-16 32 
0.7413826413 5.097727899e-15 7.961863824e-16 41 
0.7418009107 5.329089417e-15 8.127173239e-16 43 
0.7422191802 4.943379123e-15 7.816675408e-16 40 
0.7426374497 5.670706871e-15 8.361718586e-16 46 
0.7430557192 5.538245493e-15 8.256441329e-16 45 
0.7434739886 6.402814671e-15 8.879736364e-16 52 
0.7438922581 4.431372211e-15 7.385993887e-16 36 
0.7443105276 5.144933673e-15 7.939400143e-16 42 
0.7447287971 6.490259311e-15 8.915524095e-16 53 
0.7451470665 3.660811398e-15 6.684077005e-16 30 
0.745565336 5.869578501e-15 8.47236356e-16 48 
0.7459836055 3.80020133e-15 6.825637498e-16 31 
0.746401875 6.336035762e-15 8.787001447e-16 52 
0.7468201444 4.873951735e-15 7.706849351e-16 40 
0.7472384139 4.850919312e-15 7.670347677e-16 40 
0.7476566834 4.964744599e-15 7.754007031e-16 41 
0.7480749528 3.624465354e-15 6.617542946e-16 30 
0.7484932223 4.731058461e-15 7.576150376e-16 39 
0.7489114918 3.623091558e-15 6.615130057e-16 30 
0.7493297613 5.798241443e-15 8.369450501e-16 48 
0.7497480307 5.187397064e-15 7.911123201e-16 43 
0.7501663002 4.828966508e-15 7.6355775e-16 40 
0.7505845697 5.650187868e-15 8.242081165e-16 47 
0.7510028392 3.490163596e-15 6.481504088e-16 29 
0.7514211086 3.834090055e-15 6.77820578e-16 32 
0.7518393781 3.835865313e-15 6.78121092e-16 32 
0.7522576476 4.414906245e-15 7.258380817e-16 37 
0.7526759171 5.384110086e-15 8.02646677e-16 45 
0.7530941865 5.964887361e-15 8.435953642e-16 50 
0.753512456 4.271810635e-15 7.119876155e-16 36 
0.7539307255 4.878025777e-15 7.618570249e-16 41 
0.7543489949 3.915727097e-15 6.816640816e-16 33 
0.7547672644 4.739061514e-15 7.493358403e-16 40 
0.7551855339 5.105668377e-15 7.78638717e-16 43 
0.7556038034 4.029392373e-15 6.910552436e-16 34 
0.7560220728 6.500510429e-15 8.765565632e-16 55 
0.7564403423 6.130764945e-15 8.502039101e-16 52 
0.7568586118 3.887074811e-15 6.766734241e-16 33 
0.7572768813 4.952307448e-15 7.641857891e-16 42 
0.7576951507 5.536970356e-15 8.076781492e-16 47 
0.7581134202 5.169551017e-15 7.793661225e-16 44 
0.7585316897 5.630148013e-15 8.126647085e-16 48 
0.7589499591 5.63796611e-15 8.13793285e-16 48 
0.7593682286 4.798459954e-15 7.494113046e-16 41 
0.7597864981 6.661711626e-15 8.823888611e-16 57 
0.7602047676 5.147274223e-15 7.760026703e-16 44 
0.760623037 3.729420576e-15 6.592883003e-16 32 
0.7610413065 5.590710224e-15 8.069710815e-16 48 
0.761459576 5.591809944e-15 8.071268327e-16 48 
0.7618778455 4.538226602e-15 7.267149189e-16 39 
0.7622961149 5.103879997e-15 7.694567788e-16 44 
0.7627143844 6.033095107e-15 8.366624361e-16 52 
0.7631326539 6.034811965e-15 8.368979097e-16 52 
0.7635509234 5.567155833e-15 8.035722361e-16 48 
0.7639691928 5.096708907e-15 7.683749948e-16 44 
0.7643874623 4.972436268e-15 7.583083274e-16 43 
0.7648057318 3.693771533e-15 6.529881101e-16 32 
0.7652240012 4.61527918e-15 7.297564224e-16 40 
0.7656422707 5.522216925e-15 7.970763003e-16 48 
0.7660605402 4.716481365e-15 7.366010516e-16 41 
0.7664788097 4.241215375e-15 6.972601228e-16 37 
0.7668970791 4.823997966e-15 7.443734895e-16 42 
0.7673153486 6.532634598e-15 8.652843122e-16 57 
0.7677336181 5.14840673e-15 7.674940881e-16 45 
0.7681518876 5.031869637e-15 7.58593145e-16 44 
0.768570157 4.797903516e-15 7.403491556e-16 42 
0.7689884265 4.795247113e-15 7.399337622e-16 42 
0.769406696 5.131007975e-15 7.648989652e-16 45 
0.7698249655 5.578875979e-15 7.969966167e-16 49 
0.7702432349 5.927924306e-15 8.220718904e-16 52 
0.7706615044 5.114995166e-15 7.62509737e-16 45 
0.7710797739 5.800876782e-15 8.122978965e-16 51 
0.7714980433 5.785452683e-15 8.101358222e-16 51 
0.7719163128 4.766822149e-15 7.355570449e-16 42 
0.7723345823 3.177551602e-15 6.005110639e-16 28 
0.7727528518 6.79367434e-15 8.770756176e-16 60 
0.7731711212 5.086042198e-15 7.582003418e-16 45 
0.7735893907 6.663565118e-15 8.675360104e-16 59 
0.7740076602 6.540711942e-15 8.588537043e-16 58 
0.7744259297 4.963662377e-15 7.483139532e-16 44 
0.7748441991 5.290435774e-15 7.717060947e-16 47 
0.7752624686 4.831227825e-15 7.36769631e-16 43 
0.7756807381 5.623218627e-15 7.952567027e-16 50 
0.7760990076 5.729590185e-15 8.023170901e-16 51 
0.776517277 3.2506359e-15 6.036364457e-16 29 
0.7769355465 4.380938776e-15 7.015273783e-16 39 
0.777353816 4.257052663e-15 6.905958419e-16 38 
0.7777720854 4.920400379e-15 7.417869791e-16 44 
0.7781903549 4.130674999e-15 6.790885552e-16 37 
0.7786086244 4.804746066e-15 7.327320941e-16 43 
0.7790268939 4.353038554e-15 6.970546424e-16 39 
0.7794451633 4.682347845e-15 7.225147294e-16 42 
0.7798634328 4.896298541e-15 7.381553361e-16 44 
0.7802817023 5.345873502e-15 7.71622979e-16 48 
0.7806999718 5.665429759e-15 7.933329897e-16 51 
0.7811182412 5.220033771e-15 7.614316888e-16 47 
0.7815365107 4.991564391e-15 7.441093039e-16 45 
0.7819547802 3.880479078e-15 6.559356165e-16 35 
0.7823730496 4.643045704e-15 7.164488117e-16 42 
0.7827913191 5.307418604e-15 7.660756265e-16 48 
0.7832095886 4.197535679e-15 6.809433224e-16 38 
0.7836278581 4.3082221e-15 6.898780254e-16 39 
0.7840461275 5.179612622e-15 7.555381469e-16 47 
0.784464397 4.517079967e-15 7.054596986e-16 41 
0.7848826665 4.299249399e-15 6.884414263e-16 39 
0.785300936 5.061867572e-15 7.463458228e-16 46 
0.7857192054 4.611408216e-15 7.115698107e-16 42 
0.7861374749 5.471752879e-15 7.738372586e-16 50 
0.7865557444 4.614177957e-15 7.119957973e-16 42 
0.7869740139 4.925392859e-15 7.342460496e-16 45 
0.7873922833 4.594630202e-15 7.089797866e-16 42 
0.7878105528 3.274755857e-15 5.978947757e-16 30 
0.7882288223 4.802593716e-15 7.240299145e-16 44 
0.7886470917 5.352311017e-15 7.646316735e-16 49 
0.7890653612 6.327946659e-15 8.309169053e-16 58 
0.7894836307 4.027219697e-15 6.620886358e-16 37 
0.7899019002 4.572572579e-15 7.055807633e-16 42 
0.7903201696 5.001333361e-15 7.374161131e-16 46 
0.7907384391 5.100195729e-15 7.439520667e-16 47 
0.7911567086 4.768116004e-15 7.188409303e-16 44 
0.7915749781 5.6379662e-15 7.818626217e-16 52 
0.7919932475 4.430160078e-15 6.918883994e-16 41 
0.792411517 4.218452834e-15 6.755097164e-16 39 
0.7928297865 3.567948467e-15 6.211146425e-16 33 
0.793248056 5.176252164e-15 7.471477743e-16 48 
0.7936663254 5.606980971e-15 7.775660079e-16 52 
0.7940845949 5.820830692e-15 7.921332721e-16 54 
0.7945028644 4.623149864e-15 7.050457498e-16 43 
0.7949211338 3.537742982e-15 6.158594559e-16 33 
0.7953394033 4.721250801e-15 7.117672437e-16 44 
0.7957576728 3.861028277e-15 6.435153147e-16 36 
0.7961759423 4.606688168e-15 7.02526517e-16 43 
0.7965942117 4.696186264e-15 7.080028991e-16 44 
0.7970124812 5.341496902e-15 7.554240606e-16 50 
0.7974307507 5.328493424e-15 7.535848561e-16 50 
0.7978490202 4.146547561e-15 6.639936174e-16 39 
0.7982672896 4.039334063e-15 6.552843805e-16 38 
0.7986855591 5.209098657e-15 7.441803672e-16 49 
0.7991038286 4.877635001e-15 7.191882798e-16 46 
0.7995220981 4.146916266e-15 6.640588837e-16 39 
0.7999403675 3.931656898e-15 6.463811816e-16 37 
0.800358637 4.869385638e-15 7.179695542e-16 46 
0.8007769065 4.65976538e-15 7.025086974e-16 44 
0.8011951759 5.811189968e-15 7.836041821e-16 55 
0.8016134454 5.173156688e-15 7.390360843e-16 49 
0.8020317149 3.374036951e-15 5.96474785e-16 32 
0.8024499844 3.996476895e-15 6.483367444e-16 38 
0.8028682538 5.251713532e-15 7.427303708e-16 50 
0.8032865233 4.097781126e-15 6.561945282e-16 39 
0.8037047928 5.246962453e-15 7.420629702e-16 50 
0.8041230623 5.141999321e-15 7.345983458e-16 49 
0.8045413317 4.393745646e-15 6.779976346e-16 42 
0.8049596012 4.389589141e-15 6.773546392e-16 42 
0.8053778707 5.119603607e-15 7.314050026e-16 49 
0.8057961401 3.976930548e-15 6.451594964e-16 38 
0.8062144096 3.966501562e-15 6.434712914e-16 38 
0.8066326791 3.859546479e-15 6.345412789e-16 37 
0.8070509486 4.683382751e-15 6.981882772e-16 45 
0.807469218 6.442875613e-15 8.182800996e-16 62 
0.8078874875 3.517609615e-15 6.032856896e-16 34 
0.808305757 5.270775791e-15 7.380858894e-16 51 
0.8087240265 5.285057867e-15 7.400875165e-16 51 
0.8091422959 4.033420882e-15 6.458889758e-16 39 
0.8095605654 4.740201171e-15 6.989422076e-16 46 
0.8099788349 5.356178065e-15 7.428039046e-16 52 
0.8103971044 3.606615961e-15 6.096542495e-16 35 
0.8108153738 4.840334382e-15 7.060710749e-16 47 
0.8112336433 3.793932809e-15 6.237510196e-16 37 
0.8116519128 3.578349708e-15 6.048899049e-16 35 
0.8120701822 5.134023664e-15 7.260958506e-16 50 
0.8124884517 4.289380725e-15 6.619018645e-16 42 
0.8129067212 4.492571679e-15 6.773229199e-16 44 
0.8133249907 4.692661841e-15 6.919383148e-16 46 
0.8137432601 4.085285962e-15 6.459878414e-16 40 
0.8141615296 5.396864589e-15 7.413607632e-16 53 
0.8145797991 3.876477049e-15 6.28879634e-16 38 
0.8149980686 4.866435663e-15 7.024598551e-16 48 
0.815416338 4.159694564e-15 6.496748805e-16 41 
0.8158346075 5.058209615e-15 7.15377437e-16 50 
0.816252877 4.36291275e-15 6.653830517e-16 43 
0.8166711465 5.243323571e-15 7.271757892e-16 52 
0.8170894159 2.928975661e-15 5.439356219e-16 29 
0.8175076854 4.930953276e-15 7.044656365e-16 49 
0.8179259549 5.025665443e-15 7.108029812e-16 50 
0.8183442243 4.214379097e-15 6.50342505e-16 42 
0.8187624938 4.917249572e-15 7.025093096e-16 49 
0.8191807633 3.899667258e-15 6.244963486e-16 39 
0.8195990328 5.089409565e-15 7.127255672e-16 51 
0.8200173022 3.698858407e-15 6.08129772e-16 37 
0.8204355717 4.187039979e-15 6.461335092e-16 42 
0.8208538412 4.185681147e-15 6.459248383e-16 42 
0.8212721107 3.273135981e-15 5.698202751e-16 33 
0.8216903801 4.867164318e-15 6.953735455e-16 49 
0.8221086496 3.576390386e-15 5.961231086e-16 36 
0.8225269191 4.66340589e-15 6.802779478e-16 47 
0.8229451886 3.661808981e-15 6.02037165e-16 37 
0.823363458 3.843235699e-15 6.154491443e-16 39 
0.8237817275 3.748897248e-15 6.081866584e-16 38 
0.824199997 4.528140248e-15 6.676915571e-16 46 
0.8246182664 4.932592414e-15 6.976278949e-16 50 
0.8250365359 4.222952789e-15 6.440425895e-16 43 
0.8254548054 4.70243464e-15 6.78820323e-16 48 
0.8258730749 3.724989458e-15 6.043274987e-16 38 
0.8262913443 5.67383386e-15 7.450625575e-16 58 
0.8267096138 4.396073505e-15 6.553679375e-16 45 
0.8271278833 4.686427873e-15 6.764697909e-16 48 
0.8275461528 4.97974546e-15 6.973567946e-16 51 
0.8279644222 3.200734105e-15 5.572027391e-16 33 
0.8283826917 4.268526203e-15 6.43562799e-16 44 
0.8288009612 4.848381061e-15 6.857195092e-16 50 
0.8292192306 3.78074973e-15 6.05451932e-16 39 
0.8296375001 4.552404128e-15 6.641000851e-16 47 
0.8300557696 2.896029064e-15 5.287784652e-16 30 
0.8304740391 2.709297876e-15 5.120570941e-16 28 
0.8308923085 3.774365182e-15 6.044267691e-16 39 
0.831310578 3.277137134e-15 5.62063185e-16 34 
0.8317288475 3.174141978e-15 5.525909283e-16 33 
0.832147117 3.756721863e-15 6.015972532e-16 39 
0.8325653864 2.7863431e-15 5.174478351e-16 29 
0.8329836559 3.065845327e-15 5.419961879e-16 32 
0.8334019254 2.780447853e-15 5.163468143e-16 29 
0.8338201949 3.166351611e-15 5.512148835e-16 33 
0.8342384643 1.722384244e-15 4.059953885e-16 18 
0.8346567338 2.771826248e-15 5.147480759e-16 29 
0.8350750033 2.864138692e-15 5.229428443e-16 30 
0.8354932727 1.527106446e-15 3.81788879e-16 16 
0.8359115422 2.478270282e-15 4.860677207e-16 26 
0.8363298117 2.577614138e-15 4.96079388e-16 27 
