  1   1   0  12  2.07288  27.9159  225.639
  1   0   1  12  2.07288  27.9159  225.639
  1   0  -1  12  2.07288  27.9159  225.639
  1  -1   0  12  2.07288  27.9159  225.639
  0   1   1  12  2.07288  27.9159  225.639
  0   1  -1  12  2.07288  27.9159  225.639
  0  -1   1  12  2.07288  27.9159  225.639
  0  -1  -1  12  2.07288  27.9159  225.639
 -1   1   0  12  2.07288  27.9159  225.639
 -1   0   1  12  2.07288  27.9159  225.639
 -1   0  -1  12  2.07288  27.9159  225.639
 -1  -1   0  12  2.07288  27.9159  225.639
  2   0   0   6  1.46575  39.8905  142.529
  0   2   0   6  1.46575  39.8905  142.529
  0   0   2   6  1.46575  39.8905  142.529
  0   0  -2   6  1.46575  39.8905  142.529
  0  -2   0   6  1.46575  39.8905  142.529
 -2   0   0   6  1.46575  39.8905  142.529
  2   1   1  24  1.19678    49.39  90.0314
  2   1  -1  24  1.19678    49.39  90.0314
  2  -1   1  24  1.19678    49.39  90.0314
  2  -1  -1  24  1.19678    49.39  90.0314
  1   2   1  24  1.19678    49.39  90.0314
  1   2  -1  24  1.19678    49.39  90.0314
  1   1   2  24  1.19678    49.39  90.0314
  1   1  -2  24  1.19678    49.39  90.0314
  1  -1   2  24  1.19678    49.39  90.0314
  1  -1  -2  24  1.19678    49.39  90.0314
  1  -2   1  24  1.19678    49.39  90.0314
  1  -2  -1  24  1.19678    49.39  90.0314
 -1   2   1  24  1.19678    49.39  90.0314
 -1   2  -1  24  1.19678    49.39  90.0314
 -1   1   2  24  1.19678    49.39  90.0314
 -1   1  -2  24  1.19678    49.39  90.0314
 -1  -1   2  24  1.19678    49.39  90.0314
 -1  -1  -2  24  1.19678    49.39  90.0314
 -1  -2   1  24  1.19678    49.39  90.0314
 -1  -2  -1  24  1.19678    49.39  90.0314
 -2   1   1  24  1.19678    49.39  90.0314
 -2   1  -1  24  1.19678    49.39  90.0314
 -2  -1   1  24  1.19678    49.39  90.0314
 -2  -1  -1  24  1.19678    49.39  90.0314
  2   2   0  12  1.03644  57.6871  56.8701
  2   0   2  12  1.03644  57.6871  56.8701
  2   0  -2  12  1.03644  57.6871  56.8701
  2  -2   0  12  1.03644  57.6871  56.8701
  0   2   2  12  1.03644  57.6871  56.8701
  0   2  -2  12  1.03644  57.6871  56.8701
  0  -2   2  12  1.03644  57.6871  56.8701
  0  -2  -2  12  1.03644  57.6871  56.8701
 -2   2   0  12  1.03644  57.6871  56.8701
 -2   0   2  12  1.03644  57.6871  56.8701
 -2   0  -2  12  1.03644  57.6871  56.8701
 -2  -2   0  12  1.03644  57.6871  56.8701
  3   1   0  24 0.927022  65.2804  35.9232
  3   0   1  24 0.927022  65.2804  35.9232
  3   0  -1  24 0.927022  65.2804  35.9232
  3  -1   0  24 0.927022  65.2804  35.9232
  1   3   0  24 0.927022  65.2804  35.9232
  1   0   3  24 0.927022  65.2804  35.9232
  1   0  -3  24 0.927022  65.2804  35.9232
  1  -3   0  24 0.927022  65.2804  35.9232
  0   3   1  24 0.927022  65.2804  35.9232
  0   3  -1  24 0.927022  65.2804  35.9232
  0   1   3  24 0.927022  65.2804  35.9232
  0   1  -3  24 0.927022  65.2804  35.9232
  0  -1   3  24 0.927022  65.2804  35.9232
  0  -1  -3  24 0.927022  65.2804  35.9232
  0  -3   1  24 0.927022  65.2804  35.9232
  0  -3  -1  24 0.927022  65.2804  35.9232
 -1   3   0  24 0.927022  65.2804  35.9232
 -1   0   3  24 0.927022  65.2804  35.9232
 -1   0  -3  24 0.927022  65.2804  35.9232
 -1  -3   0  24 0.927022  65.2804  35.9232
 -3   1   0  24 0.927022  65.2804  35.9232
 -3   0   1  24 0.927022  65.2804  35.9232
 -3   0  -1  24 0.927022  65.2804  35.9232
 -3  -1   0  24 0.927022  65.2804  35.9232
  2   2   2   8 0.846251  72.4334  22.6916
  2   2  -2   8 0.846251  72.4334  22.6916
  2  -2   2   8 0.846251  72.4334  22.6916
  2  -2  -2   8 0.846251  72.4334  22.6916
 -2   2   2   8 0.846251  72.4334  22.6916
 -2   2  -2   8 0.846251  72.4334  22.6916
 -2  -2   2   8 0.846251  72.4334  22.6916
 -2  -2  -2   8 0.846251  72.4334  22.6916
  3   2   1  48 0.783476  79.3127  14.3336
  3   2  -1  48 0.783476  79.3127  14.3336
  3   1   2  48 0.783476  79.3127  14.3336
  3   1  -2  48 0.783476  79.3127  14.3336
  3  -1   2  48 0.783476  79.3127  14.3336
  3  -1  -2  48 0.783476  79.3127  14.3336
  3  -2   1  48 0.783476  79.3127  14.3336
  3  -2  -1  48 0.783476  79.3127  14.3336
  2   3   1  48 0.783476  79.3127  14.3336
  2   3  -1  48 0.783476  79.3127  14.3336
  2   1   3  48 0.783476  79.3127  14.3336
  2   1  -3  48 0.783476  79.3127  14.3336
  2  -1   3  48 0.783476  79.3127  14.3336
  2  -1  -3  48 0.783476  79.3127  14.3336
  2  -3   1  48 0.783476  79.3127  14.3336
  2  -3  -1  48 0.783476  79.3127  14.3336
  1   3   2  48 0.783476  79.3127  14.3336
  1   3  -2  48 0.783476  79.3127  14.3336
  1   2   3  48 0.783476  79.3127  14.3336
  1   2  -3  48 0.783476  79.3127  14.3336
  1  -2   3  48 0.783476  79.3127  14.3336
  1  -2  -3  48 0.783476  79.3127  14.3336
  1  -3   2  48 0.783476  79.3127  14.3336
  1  -3  -2  48 0.783476  79.3127  14.3336
 -1   3   2  48 0.783476  79.3127  14.3336
 -1   3  -2  48 0.783476  79.3127  14.3336
 -1   2   3  48 0.783476  79.3127  14.3336
 -1   2  -3  48 0.783476  79.3127  14.3336
 -1  -2   3  48 0.783476  79.3127  14.3336
 -1  -2  -3  48 0.783476  79.3127  14.3336
 -1  -3   2  48 0.783476  79.3127  14.3336
 -1  -3  -2  48 0.783476  79.3127  14.3336
 -2   3   1  48 0.783476  79.3127  14.3336
 -2   3  -1  48 0.783476  79.3127  14.3336
 -2   1   3  48 0.783476  79.3127  14.3336
 -2   1  -3  48 0.783476  79.3127  14.3336
 -2  -1   3  48 0.783476  79.3127  14.3336
 -2  -1  -3  48 0.783476  79.3127  14.3336
 -2  -3   1  48 0.783476  79.3127  14.3336
 -2  -3  -1  48 0.783476  79.3127  14.3336
 -3   2   1  48 0.783476  79.3127  14.3336
 -3   2  -1  48 0.783476  79.3127  14.3336
 -3   1   2  48 0.783476  79.3127  14.3336
 -3   1  -2  48 0.783476  79.3127  14.3336
 -3  -1   2  48 0.783476  79.3127  14.3336
 -3  -1  -2  48 0.783476  79.3127  14.3336
 -3  -2   1  48 0.783476  79.3127  14.3336
 -3  -2  -1  48 0.783476  79.3127  14.3336
  4   0   0   6 0.732875  86.0386  9.05409
  0   4   0   6 0.732875  86.0386  9.05409
  0   0   4   6 0.732875  86.0386  9.05409
  0   0  -4   6 0.732875  86.0386  9.05409
  0  -4   0   6 0.732875  86.0386  9.05409
 -4   0   0   6 0.732875  86.0386  9.05409
  4   1   1  24 0.690961  92.7099   5.7192
  4   1  -1  24 0.690961  92.7099   5.7192
  4  -1   1  24 0.690961  92.7099   5.7192
  4  -1  -1  24 0.690961  92.7099   5.7192
  3   3   0  12 0.690961  92.7099   5.7192
  3   0   3  12 0.690961  92.7099   5.7192
  3   0  -3  12 0.690961  92.7099   5.7192
  3  -3   0  12 0.690961  92.7099   5.7192
  1   4   1  24 0.690961  92.7099   5.7192
  1   4  -1  24 0.690961  92.7099   5.7192
  1   1   4  24 0.690961  92.7099   5.7192
  1   1  -4  24 0.690961  92.7099   5.7192
  1  -1   4  24 0.690961  92.7099   5.7192
  1  -1  -4  24 0.690961  92.7099   5.7192
  1  -4   1  24 0.690961  92.7099   5.7192
  1  -4  -1  24 0.690961  92.7099   5.7192
  0   3   3  12 0.690961  92.7099   5.7192
  0   3  -3  12 0.690961  92.7099   5.7192
  0  -3   3  12 0.690961  92.7099   5.7192
  0  -3  -3  12 0.690961  92.7099   5.7192
 -1   4   1  24 0.690961  92.7099   5.7192
 -1   4  -1  24 0.690961  92.7099   5.7192
 -1   1   4  24 0.690961  92.7099   5.7192
 -1   1  -4  24 0.690961  92.7099   5.7192
 -1  -1   4  24 0.690961  92.7099   5.7192
 -1  -1  -4  24 0.690961  92.7099   5.7192
 -1  -4   1  24 0.690961  92.7099   5.7192
 -1  -4  -1  24 0.690961  92.7099   5.7192
 -3   3   0  12 0.690961  92.7099   5.7192
 -3   0   3  12 0.690961  92.7099   5.7192
 -3   0  -3  12 0.690961  92.7099   5.7192
 -3  -3   0  12 0.690961  92.7099   5.7192
 -4   1   1  24 0.690961  92.7099   5.7192
 -4   1  -1  24 0.690961  92.7099   5.7192
 -4  -1   1  24 0.690961  92.7099   5.7192
 -4  -1  -1  24 0.690961  92.7099   5.7192
  4   2   0  24 0.655503  99.4185  3.61264
  4   0   2  24 0.655503  99.4185  3.61264
  4   0  -2  24 0.655503  99.4185  3.61264
  4  -2   0  24 0.655503  99.4185  3.61264
  2   4   0  24 0.655503  99.4185  3.61264
  2   0   4  24 0.655503  99.4185  3.61264
  2   0  -4  24 0.655503  99.4185  3.61264
  2  -4   0  24 0.655503  99.4185  3.61264
  0   4   2  24 0.655503  99.4185  3.61264
  0   4  -2  24 0.655503  99.4185  3.61264
  0   2   4  24 0.655503  99.4185  3.61264
  0   2  -4  24 0.655503  99.4185  3.61264
  0  -2   4  24 0.655503  99.4185  3.61264
  0  -2  -4  24 0.655503  99.4185  3.61264
  0  -4   2  24 0.655503  99.4185  3.61264
  0  -4  -2  24 0.655503  99.4185  3.61264
 -2   4   0  24 0.655503  99.4185  3.61264
 -2   0   4  24 0.655503  99.4185  3.61264
 -2   0  -4  24 0.655503  99.4185  3.61264
 -2  -4   0  24 0.655503  99.4185  3.61264
 -4   2   0  24 0.655503  99.4185  3.61264
 -4   0   2  24 0.655503  99.4185  3.61264
 -4   0  -2  24 0.655503  99.4185  3.61264
 -4  -2   0  24 0.655503  99.4185  3.61264
  3   3   2  24 0.624998  106.261    2.282
  3   3  -2  24 0.624998  106.261    2.282
  3   2   3  24 0.624998  106.261    2.282
  3   2  -3  24 0.624998  106.261    2.282
  3  -2   3  24 0.624998  106.261    2.282
  3  -2  -3  24 0.624998  106.261    2.282
  3  -3   2  24 0.624998  106.261    2.282
  3  -3  -2  24 0.624998  106.261    2.282
  2   3   3  24 0.624998  106.261    2.282
  2   3  -3  24 0.624998  106.261    2.282
  2  -3   3  24 0.624998  106.261    2.282
  2  -3  -3  24 0.624998  106.261    2.282
 -2   3   3  24 0.624998  106.261    2.282
 -2   3  -3  24 0.624998  106.261    2.282
 -2  -3   3  24 0.624998  106.261    2.282
 -2  -3  -3  24 0.624998  106.261    2.282
 -3   3   2  24 0.624998  106.261    2.282
 -3   3  -2  24 0.624998  106.261    2.282
 -3   2   3  24 0.624998  106.261    2.282
 -3   2  -3  24 0.624998  106.261    2.282
 -3  -2   3  24 0.624998  106.261    2.282
 -3  -2  -3  24 0.624998  106.261    2.282
 -3  -3   2  24 0.624998  106.261    2.282
 -3  -3  -2  24 0.624998  106.261    2.282
  4   2   2  24  0.59839  113.352  1.44147
  4   2  -2  24  0.59839  113.352  1.44147
  4  -2   2  24  0.59839  113.352  1.44147
  4  -2  -2  24  0.59839  113.352  1.44147
  2   4   2  24  0.59839  113.352  1.44147
  2   4  -2  24  0.59839  113.352  1.44147
  2   2   4  24  0.59839  113.352  1.44147
  2   2  -4  24  0.59839  113.352  1.44147
  2  -2   4  24  0.59839  113.352  1.44147
  2  -2  -4  24  0.59839  113.352  1.44147
  2  -4   2  24  0.59839  113.352  1.44147
  2  -4  -2  24  0.59839  113.352  1.44147
 -2   4   2  24  0.59839  113.352  1.44147
 -2   4  -2  24  0.59839  113.352  1.44147
 -2   2   4  24  0.59839  113.352  1.44147
 -2   2  -4  24  0.59839  113.352  1.44147
 -2  -2   4  24  0.59839  113.352  1.44147
 -2  -2  -4  24  0.59839  113.352  1.44147
 -2  -4   2  24  0.59839  113.352  1.44147
 -2  -4  -2  24  0.59839  113.352  1.44147
 -4   2   2  24  0.59839  113.352  1.44147
 -4   2  -2  24  0.59839  113.352  1.44147
 -4  -2   2  24  0.59839  113.352  1.44147
 -4  -2  -2  24  0.59839  113.352  1.44147
  5   1   0  24 0.574914  120.846 0.910533
  5   0   1  24 0.574914  120.846 0.910533
  5   0  -1  24 0.574914  120.846 0.910533
  5  -1   0  24 0.574914  120.846 0.910533
  4   3   1  48 0.574914  120.846 0.910533
  4   3  -1  48 0.574914  120.846 0.910533
  4   1   3  48 0.574914  120.846 0.910533
  4   1  -3  48 0.574914  120.846 0.910533
  4  -1   3  48 0.574914  120.846 0.910533
  4  -1  -3  48 0.574914  120.846 0.910533
  4  -3   1  48 0.574914  120.846 0.910533
  4  -3  -1  48 0.574914  120.846 0.910533
  3   4   1  48 0.574914  120.846 0.910533
  3   4  -1  48 0.574914  120.846 0.910533
  3   1   4  48 0.574914  120.846 0.910533
  3   1  -4  48 0.574914  120.846 0.910533
  3  -1   4  48 0.574914  120.846 0.910533
  3  -1  -4  48 0.574914  120.846 0.910533
  3  -4   1  48 0.574914  120.846 0.910533
  3  -4  -1  48 0.574914  120.846 0.910533
  1   5   0  24 0.574914  120.846 0.910533
  1   4   3  48 0.574914  120.846 0.910533
  1   4  -3  48 0.574914  120.846 0.910533
  1   3   4  48 0.574914  120.846 0.910533
  1   3  -4  48 0.574914  120.846 0.910533
  1   0   5  24 0.574914  120.846 0.910533
  1   0  -5  24 0.574914  120.846 0.910533
  1  -3   4  48 0.574914  120.846 0.910533
  1  -3  -4  48 0.574914  120.846 0.910533
  1  -4   3  48 0.574914  120.846 0.910533
  1  -4  -3  48 0.574914  120.846 0.910533
  1  -5   0  24 0.574914  120.846 0.910533
  0   5   1  24 0.574914  120.846 0.910533
  0   5  -1  24 0.574914  120.846 0.910533
  0   1   5  24 0.574914  120.846 0.910533
  0   1  -5  24 0.574914  120.846 0.910533
  0  -1   5  24 0.574914  120.846 0.910533
  0  -1  -5  24 0.574914  120.846 0.910533
  0  -5   1  24 0.574914  120.846 0.910533
  0  -5  -1  24 0.574914  120.846 0.910533
 -1   5   0  24 0.574914  120.846 0.910533
 -1   4   3  48 0.574914  120.846 0.910533
 -1   4  -3  48 0.574914  120.846 0.910533
 -1   3   4  48 0.574914  120.846 0.910533
 -1   3  -4  48 0.574914  120.846 0.910533
 -1   0   5  24 0.574914  120.846 0.910533
 -1   0  -5  24 0.574914  120.846 0.910533
 -1  -3   4  48 0.574914  120.846 0.910533
 -1  -3  -4  48 0.574914  120.846 0.910533
 -1  -4   3  48 0.574914  120.846 0.910533
 -1  -4  -3  48 0.574914  120.846 0.910533
 -1  -5   0  24 0.574914  120.846 0.910533
 -3   4   1  48 0.574914  120.846 0.910533
 -3   4  -1  48 0.574914  120.846 0.910533
 -3   1   4  48 0.574914  120.846 0.910533
 -3   1  -4  48 0.574914  120.846 0.910533
 -3  -1   4  48 0.574914  120.846 0.910533
 -3  -1  -4  48 0.574914  120.846 0.910533
 -3  -4   1  48 0.574914  120.846 0.910533
 -3  -4  -1  48 0.574914  120.846 0.910533
 -4   3   1  48 0.574914  120.846 0.910533
 -4   3  -1  48 0.574914  120.846 0.910533
 -4   1   3  48 0.574914  120.846 0.910533
 -4   1  -3  48 0.574914  120.846 0.910533
 -4  -1   3  48 0.574914  120.846 0.910533
 -4  -1  -3  48 0.574914  120.846 0.910533
 -4  -3   1  48 0.574914  120.846 0.910533
 -4  -3  -1  48 0.574914  120.846 0.910533
 -5   1   0  24 0.574914  120.846 0.910533
 -5   0   1  24 0.574914  120.846 0.910533
 -5   0  -1  24 0.574914  120.846 0.910533
 -5  -1   0  24 0.574914  120.846 0.910533
  5   2   1  48 0.535216  138.199 0.363309
  5   2  -1  48 0.535216  138.199 0.363309
  5   1   2  48 0.535216  138.199 0.363309
  5   1  -2  48 0.535216  138.199 0.363309
  5  -1   2  48 0.535216  138.199 0.363309
  5  -1  -2  48 0.535216  138.199 0.363309
  5  -2   1  48 0.535216  138.199 0.363309
  5  -2  -1  48 0.535216  138.199 0.363309
  2   5   1  48 0.535216  138.199 0.363309
  2   5  -1  48 0.535216  138.199 0.363309
  2   1   5  48 0.535216  138.199 0.363309
  2   1  -5  48 0.535216  138.199 0.363309
  2  -1   5  48 0.535216  138.199 0.363309
  2  -1  -5  48 0.535216  138.199 0.363309
  2  -5   1  48 0.535216  138.199 0.363309
  2  -5  -1  48 0.535216  138.199 0.363309
  1   5   2  48 0.535216  138.199 0.363309
  1   5  -2  48 0.535216  138.199 0.363309
  1   2   5  48 0.535216  138.199 0.363309
  1   2  -5  48 0.535216  138.199 0.363309
  1  -2   5  48 0.535216  138.199 0.363309
  1  -2  -5  48 0.535216  138.199 0.363309
  1  -5   2  48 0.535216  138.199 0.363309
  1  -5  -2  48 0.535216  138.199 0.363309
 -1   5   2  48 0.535216  138.199 0.363309
 -1   5  -2  48 0.535216  138.199 0.363309
 -1   2   5  48 0.535216  138.199 0.363309
 -1   2  -5  48 0.535216  138.199 0.363309
 -1  -2   5  48 0.535216  138.199 0.363309
 -1  -2  -5  48 0.535216  138.199 0.363309
 -1  -5   2  48 0.535216  138.199 0.363309
 -1  -5  -2  48 0.535216  138.199 0.363309
 -2   5   1  48 0.535216  138.199 0.363309
 -2   5  -1  48 0.535216  138.199 0.363309
 -2   1   5  48 0.535216  138.199 0.363309
 -2   1  -5  48 0.535216  138.199 0.363309
 -2  -1   5  48 0.535216  138.199 0.363309
 -2  -1  -5  48 0.535216  138.199 0.363309
 -2  -5   1  48 0.535216  138.199 0.363309
 -2  -5  -1  48 0.535216  138.199 0.363309
 -5   2   1  48 0.535216  138.199 0.363309
 -5   2  -1  48 0.535216  138.199 0.363309
 -5   1   2  48 0.535216  138.199 0.363309
 -5   1  -2  48 0.535216  138.199 0.363309
 -5  -1   2  48 0.535216  138.199 0.363309
 -5  -1  -2  48 0.535216  138.199 0.363309
 -5  -2   1  48 0.535216  138.199 0.363309
 -5  -2  -1  48 0.535216  138.199 0.363309
  4   4   0  12 0.518221  149.523 0.229491
  4   0   4  12 0.518221  149.523 0.229491
  4   0  -4  12 0.518221  149.523 0.229491
  4  -4   0  12 0.518221  149.523 0.229491
  0   4   4  12 0.518221  149.523 0.229491
  0   4  -4  12 0.518221  149.523 0.229491
  0  -4   4  12 0.518221  149.523 0.229491
  0  -4  -4  12 0.518221  149.523 0.229491
 -4   4   0  12 0.518221  149.523 0.229491
 -4   0   4  12 0.518221  149.523 0.229491
 -4   0  -4  12 0.518221  149.523 0.229491
 -4  -4   0  12 0.518221  149.523 0.229491
  5   3   0  24 0.502748  168.013 0.144963
  5   0   3  24 0.502748  168.013 0.144963
  5   0  -3  24 0.502748  168.013 0.144963
  5  -3   0  24 0.502748  168.013 0.144963
  4   3   3  24 0.502748  168.013 0.144963
  4   3  -3  24 0.502748  168.013 0.144963
  4  -3   3  24 0.502748  168.013 0.144963
  4  -3  -3  24 0.502748  168.013 0.144963
  3   5   0  24 0.502748  168.013 0.144963
  3   4   3  24 0.502748  168.013 0.144963
  3   4  -3  24 0.502748  168.013 0.144963
  3   3   4  24 0.502748  168.013 0.144963
  3   3  -4  24 0.502748  168.013 0.144963
  3   0   5  24 0.502748  168.013 0.144963
  3   0  -5  24 0.502748  168.013 0.144963
  3  -3   4  24 0.502748  168.013 0.144963
  3  -3  -4  24 0.502748  168.013 0.144963
  3  -4   3  24 0.502748  168.013 0.144963
  3  -4  -3  24 0.502748  168.013 0.144963
  3  -5   0  24 0.502748  168.013 0.144963
  0   5   3  24 0.502748  168.013 0.144963
  0   5  -3  24 0.502748  168.013 0.144963
  0   3   5  24 0.502748  168.013 0.144963
  0   3  -5  24 0.502748  168.013 0.144963
  0  -3   5  24 0.502748  168.013 0.144963
  0  -3  -5  24 0.502748  168.013 0.144963
  0  -5   3  24 0.502748  168.013 0.144963
  0  -5  -3  24 0.502748  168.013 0.144963
 -3   5   0  24 0.502748  168.013 0.144963
 -3   4   3  24 0.502748  168.013 0.144963
 -3   4  -3  24 0.502748  168.013 0.144963
 -3   3   4  24 0.502748  168.013 0.144963
 -3   3  -4  24 0.502748  168.013 0.144963
 -3   0   5  24 0.502748  168.013 0.144963
 -3   0  -5  24 0.502748  168.013 0.144963
 -3  -3   4  24 0.502748  168.013 0.144963
 -3  -3  -4  24 0.502748  168.013 0.144963
 -3  -4   3  24 0.502748  168.013 0.144963
 -3  -4  -3  24 0.502748  168.013 0.144963
 -3  -5   0  24 0.502748  168.013 0.144963
 -4   3   3  24 0.502748  168.013 0.144963
 -4   3  -3  24 0.502748  168.013 0.144963
 -4  -3   3  24 0.502748  168.013 0.144963
 -4  -3  -3  24 0.502748  168.013 0.144963
 -5   3   0  24 0.502748  168.013 0.144963
 -5   0   3  24 0.502748  168.013 0.144963
 -5   0  -3  24 0.502748  168.013 0.144963
 -5  -3   0  24 0.502748  168.013 0.144963
