# Format: McCode with text headers
# URL: http://www.mccode.org
# Creator: McXtrace 1.7 - Jan. 23, 2022
# Instrument: TestSAXS.instr
# Ncount: 25000
# Trace: no
# Gravitation: no
# Seed: 1647934461
# Directory: toto_11
# Nodes: 4
# Param: DistanceFromSourceToFirstPinhole=0.05
# Param: DistanceFromSourceToSecondPinhole=0.7
# Param: DistanceFromSecondPinholeToSample=0.6
# Param: DistanceFromSampleToDetector=0.48
# Param: RadiusOfDetector=0.1
# Param: Lambda=1.54
# Param: DLambda=0.01
# Param: SAMPLE=11
# Date: Fri Feb 25 14:22:18 2022 (1645795338)
# type: array_1d(2000)
# Source: TestSAXS (TestSAXS.instr)
# component: QMonitor
# position: 0 0 1.66
# title: QMonitor - Radially averaged distribution
# Ncount: 100000
# filename: RDetector.dat
# statistics: X0=0.0103988; dX=0.0113836;
# signal: Min=0; Max=1.34161e-12; Mean=4.79396e-14;
# values: 9.58792e-11 3.72921e-12 45460
# xvar: r
# yvar: (I,I_err)
# xlabel: Radius [m]
# ylabel: I(r)
# xlimits: 0 0.1
# variables: r I I_err N
2.5e-05 0 0 0 
7.5e-05 0 0 0 
0.000125 0 0 0 
0.000175 0 0 0 
0.000225 0 0 0 
0.000275 0 0 0 
0.000325 0 0 0 
0.000375 0 0 0 
0.000425 0 0 0 
0.000475 0 0 0 
0.000525 0 0 0 
0.000575 0 0 0 
0.000625 0 0 0 
0.000675 0 0 0 
0.000725 0 0 0 
0.000775 0 0 0 
0.000825 0 0 0 
0.000875 0 0 0 
0.000925 0 0 0 
0.000975 0 0 0 
0.001025 0 0 0 
0.001075 0 0 0 
0.001125 7.578998876e-13 7.578998876e-13 1 
0.001175 7.240794498e-13 7.240794498e-13 1 
0.001225 0 0 0 
0.001275 0 0 0 
0.001325 6.42245913e-13 6.42245913e-13 1 
0.001375 1.236380298e-12 8.742533884e-13 2 
0.001425 0 0 0 
0.001475 5.724777029e-13 5.724777029e-13 1 
0.001525 0 0 0 
0.001575 1.076186835e-12 7.609792413e-13 2 
0.001625 0 0 0 
0.001675 5.067475933e-13 5.067475933e-13 1 
0.001725 4.892505021e-13 4.892505021e-13 1 
0.001775 4.758798885e-13 4.758798885e-13 1 
0.001825 0 0 0 
0.001875 9.017831229e-13 6.376624952e-13 2 
0.001925 8.690628877e-13 6.145215111e-13 2 
0.001975 4.211460902e-13 4.211460902e-13 1 
0.002025 0 0 0 
0.002075 0 0 0 
0.002125 7.858084906e-13 5.556742982e-13 2 
0.002175 3.850452455e-13 3.850452455e-13 1 
0.002225 3.729476381e-13 3.729476381e-13 1 
0.002275 7.349190431e-13 5.196666058e-13 2 
0.002325 0 0 0 
0.002375 3.463351633e-13 3.463351633e-13 1 
0.002425 1.028045537e-12 5.935435956e-13 3 
0.002475 0 0 0 
0.002525 0 0 0 
0.002575 6.425983915e-13 4.544053326e-13 2 
0.002625 0 0 0 
0.002675 3.061434088e-13 3.061434088e-13 1 
0.002725 6.089170894e-13 4.305705009e-13 2 
0.002775 5.933189918e-13 4.195441674e-13 2 
0.002825 5.863824635e-13 4.146401456e-13 2 
0.002875 5.720391889e-13 4.044945676e-13 2 
0.002925 5.614972779e-13 3.970475885e-13 2 
0.002975 0 0 0 
0.003025 2.667851499e-13 2.667851499e-13 1 
0.003075 2.677875907e-13 2.677875907e-13 1 
0.003125 0 0 0 
0.003175 1.026929872e-12 5.134754139e-13 4 
0.003225 5.082106122e-13 3.593689069e-13 2 
0.003275 0 0 0 
0.003325 0 0 0 
0.003375 4.799892293e-13 3.394074645e-13 2 
0.003425 7.116187987e-13 4.108616651e-13 3 
0.003475 0 0 0 
0.003525 0 0 0 
0.003575 2.275208789e-13 2.275208789e-13 1 
0.003625 6.681749093e-13 3.857733407e-13 3 
0.003675 4.353002174e-13 3.078055406e-13 2 
0.003725 2.174517129e-13 2.174517129e-13 1 
0.003775 4.238176849e-13 2.996942521e-13 2 
0.003825 8.323968125e-13 4.162162634e-13 4 
0.003875 8.171717097e-13 4.085950166e-13 4 
0.003925 4.041907149e-13 2.858103941e-13 2 
0.003975 3.972568411e-13 2.809706645e-13 2 
0.004025 0 0 0 
0.004075 5.832370898e-13 3.367351487e-13 3 
0.004125 1.341607686e-12 5.070843035e-13 7 
0.004175 3.732894041e-13 2.639554713e-13 2 
0.004225 1.865607864e-13 1.865607864e-13 1 
0.004275 3.643981786e-13 2.576870052e-13 2 
0.004325 5.392720218e-13 3.113639452e-13 3 
0.004375 3.614630636e-13 2.55594837e-13 2 
0.004425 0 0 0 
0.004475 3.448404265e-13 2.438473762e-13 2 
0.004525 5.108215631e-13 2.949232721e-13 3 
0.004575 0 0 0 
0.004625 4.993619342e-13 2.883161834e-13 3 
0.004675 4.937823312e-13 2.850868242e-13 3 
0.004725 0 0 0 
0.004775 0 0 0 
0.004825 1.576230441e-13 1.576230441e-13 1 
0.004875 1.56133054e-13 1.56133054e-13 1 
0.004925 0 0 0 
0.004975 3.073131692e-13 2.173609146e-13 2 
0.005025 3.00769679e-13 2.126934071e-13 2 
0.005075 4.450560801e-13 2.569696749e-13 3 
0.005125 5.870766102e-13 2.93548287e-13 4 
0.005175 0 0 0 
0.005225 7.16707786e-13 3.205329245e-13 5 
0.005275 2.798396103e-13 1.978807659e-13 2 
0.005325 1.431229074e-13 1.431229074e-13 1 
0.005375 1.384663382e-13 1.384663382e-13 1 
0.005425 5.493085812e-13 2.746748622e-13 4 
0.005475 2.701622821e-13 1.910655116e-13 2 
0.005525 7.955446167e-13 3.247909917e-13 6 
0.005575 3.975934378e-13 2.295657289e-13 3 
0.005625 1.298363629e-13 1.298363629e-13 1 
0.005675 5.21224746e-13 2.606220942e-13 4 
0.005725 2.567881578e-13 1.816144224e-13 2 
0.005775 7.578582043e-13 3.094133438e-13 6 
0.005825 3.806105951e-13 2.197519146e-13 3 
0.005875 2.493097713e-13 1.763380487e-13 2 
0.005925 6.181313835e-13 2.764456372e-13 5 
0.005975 6.071910926e-13 2.716008265e-13 5 
0.006025 4.739231095e-13 2.369787854e-13 4 
0.006075 3.551566219e-13 2.050604753e-13 3 
0.006125 2.353503318e-13 1.664246744e-13 2 
0.006175 4.599910163e-13 2.300389234e-13 4 
0.006225 2.243129548e-13 1.586148379e-13 2 
0.006275 2.252389794e-13 1.593974136e-13 2 
0.006325 4.46234886e-13 2.231579839e-13 4 
0.006375 1.124419927e-13 1.124419927e-13 1 
0.006425 6.575064961e-13 2.684858623e-13 6 
0.006475 3.221049226e-13 1.860670812e-13 3 
0.006525 1.079697906e-13 1.079697906e-13 1 
0.006575 3.129703452e-13 1.806979538e-13 3 
0.006625 2.055649686e-13 1.45394788e-13 2 
0.006675 2.047283222e-13 1.448068926e-13 2 
0.006725 2.06662015e-13 1.461342044e-13 2 
0.006775 2.0330572e-13 1.437715737e-13 2 
0.006825 4.995337001e-13 2.234229733e-13 5 
0.006875 4.944600483e-13 2.211366989e-13 5 
0.006925 1.986463104e-13 1.404719269e-13 2 
0.006975 0 0 0 
0.007025 1.894153827e-13 1.339685775e-13 2 
0.007075 3.813892738e-13 1.907046308e-13 4 
0.007125 1.896670997e-13 1.341674868e-13 2 
0.007175 2.756102565e-13 1.591370848e-13 3 
0.007225 3.682332612e-13 1.841230794e-13 4 
0.007275 5.454616354e-13 2.227073623e-13 6 
0.007325 0 0 0 
0.007375 5.357553627e-13 2.187507431e-13 6 
0.007425 3.460634029e-13 1.730409814e-13 4 
0.007475 5.202404122e-13 2.124176943e-13 6 
0.007525 8.597054803e-14 8.597054803e-14 1 
0.007575 8.219408094e-14 8.219408094e-14 1 
0.007625 0 0 0 
0.007675 1.694897922e-13 1.198485381e-13 2 
0.007725 4.973166383e-13 2.03079325e-13 6 
0.007775 2.4734039e-13 1.428042036e-13 3 
0.007825 4.051558658e-13 1.812007477e-13 5 
0.007875 5.578142146e-13 2.108633259e-13 7 
0.007925 1.596092253e-13 1.128793837e-13 2 
0.007975 3.136656255e-13 1.569225302e-13 4 
0.008025 2.344006827e-13 1.353670277e-13 3 
0.008075 3.07151844e-13 1.536213448e-13 4 
0.008125 5.334161656e-13 2.016531366e-13 7 
0.008175 2.291064983e-13 1.322767235e-13 3 
0.008225 2.237146527e-13 1.292320444e-13 3 
0.008275 2.936880586e-13 1.468614613e-13 4 
0.008325 7.408479927e-14 7.408479927e-14 1 
0.008375 2.198602921e-13 1.269486165e-13 3 
0.008425 1.436679613e-13 1.016190398e-13 2 
0.008475 1.414645176e-13 1.000462399e-13 2 
0.008525 4.241919949e-13 1.732051148e-13 6 
0.008575 3.55146614e-13 1.588323311e-13 5 
0.008625 2.749587391e-13 1.37480871e-13 4 
0.008675 6.933549973e-14 6.933549973e-14 1 
0.008725 2.036682412e-13 1.17609452e-13 3 
0.008775 2.687776485e-13 1.344521647e-13 4 
0.008825 4.612382261e-13 1.744201934e-13 7 
0.008875 3.244764076e-13 1.451639963e-13 5 
0.008925 2.580294647e-13 1.290433769e-13 4 
0.008975 3.235080234e-13 1.447073409e-13 5 
0.009025 1.891864304e-13 1.09239617e-13 3 
0.009075 1.907805345e-13 1.101492736e-13 3 
0.009125 4.396557748e-13 1.662343064e-13 7 
0.009175 1.879692591e-13 1.085646139e-13 3 
0.009225 1.834423158e-13 1.05940718e-13 3 
0.009275 1.816658924e-13 1.048873556e-13 3 
0.009325 3.013226589e-13 1.347857325e-13 5 
0.009375 2.429441166e-13 1.214933824e-13 4 
0.009425 1.78192905e-13 1.029176619e-13 3 
0.009475 2.357676334e-13 1.179346145e-13 4 
0.009525 2.859801816e-13 1.279746102e-13 5 
0.009575 1.128156169e-13 7.978440183e-14 2 
0.009625 2.255111754e-13 1.128546425e-13 4 
0.009675 5.650491642e-14 5.650491642e-14 1 
0.009725 3.329457536e-13 1.35992148e-13 6 
0.009775 2.758413806e-13 1.23385121e-13 5 
0.009825 1.616363576e-13 9.339259937e-14 3 
0.009875 2.722440511e-13 1.218013952e-13 5 
0.009925 1.035253233e-13 7.321529156e-14 2 
0.009975 2.169633243e-13 1.085035559e-13 4 
0.010025 2.100744192e-13 1.05155224e-13 4 
0.010075 2.038111865e-13 1.019239713e-13 4 
0.010125 3.514811586e-13 1.328643862e-13 7 
0.010175 2.004079098e-13 1.002377324e-13 4 
0.010225 2.002616029e-13 1.001712508e-13 4 
0.010275 2.009040857e-13 1.00463297e-13 4 
0.010325 4.496973905e-13 1.499349186e-13 9 
0.010375 2.537115962e-13 1.134814177e-13 5 
0.010425 3.412817772e-13 1.290207476e-13 7 
0.010475 4.282182046e-13 1.427734088e-13 9 
0.010525 1.88381033e-13 9.420188872e-14 4 
0.010575 5.178873799e-13 1.561953182e-13 11 
0.010625 3.218059615e-13 1.216741091e-13 7 
0.010675 2.275796788e-13 1.017864737e-13 5 
0.010725 3.213343178e-13 1.215164157e-13 7 
0.010775 2.281871051e-13 1.020574348e-13 5 
0.010825 1.80708937e-13 9.042972421e-14 4 
0.010875 1.770938373e-13 8.857289841e-14 4 
0.010925 2.151314201e-13 9.624922386e-14 5 
0.010975 2.116367059e-13 9.46755966e-14 5 
0.011025 3.433439222e-13 1.214207168e-13 8 
0.011075 8.568479046e-14 6.059308814e-14 2 
0.011125 2.543569344e-13 1.038747455e-13 6 
0.011175 2.96421706e-13 1.120788177e-13 7 
0.011225 4.117454259e-13 1.302697131e-13 10 
0.011275 8.132777908e-14 5.756024214e-14 2 
0.011325 1.219477225e-13 7.042507513e-14 3 
0.011375 1.952603088e-13 8.73324757e-14 5 
0.011425 1.202757489e-13 6.944738555e-14 3 
0.011475 3.92948116e-13 1.243136422e-13 10 
0.011525 1.913659733e-13 8.562937928e-14 5 
0.011575 2.720827736e-13 1.028628732e-13 7 
0.011625 7.550708985e-14 5.342182246e-14 2 
0.011675 3.620869165e-14 3.620869165e-14 1 
0.011725 2.997271863e-13 1.060221739e-13 8 
0.011775 1.851032574e-13 8.278607197e-14 5 
0.011825 1.455881022e-13 7.279705532e-14 4 
0.011875 1.790158086e-13 8.008453482e-14 5 
0.011925 1.802752471e-13 8.062638291e-14 5 
0.011975 1.061508337e-13 6.132168204e-14 3 
0.012025 1.769306259e-13 7.917143868e-14 5 
0.012075 2.411206091e-13 9.116718713e-14 7 
0.012125 1.36836983e-13 6.844220361e-14 4 
0.012175 2.014010469e-13 8.230385836e-14 6 
0.012225 2.038258966e-13 8.323410948e-14 6 
0.012275 2.301250872e-13 8.701896566e-14 7 
0.012325 2.306750126e-13 8.721792816e-14 7 
0.012375 3.896713816e-13 1.125193711e-13 12 
0.012425 1.587536634e-13 7.100812717e-14 5 
0.012475 1.912992251e-13 7.813762847e-14 6 
0.012525 9.471704416e-14 5.469760473e-14 3 
0.012575 2.243606826e-13 8.484249278e-14 7 
0.012625 1.549115485e-13 6.934152267e-14 5 
0.012675 2.122110098e-13 8.023689138e-14 7 
0.012725 1.52701212e-13 6.832637418e-14 5 
0.012775 5.955772713e-14 4.214093138e-14 2 
0.012825 9.121778806e-14 5.2730751e-14 3 
0.012875 2.609468633e-13 8.701490411e-14 9 
0.012925 8.899931042e-14 5.145808468e-14 3 
0.012975 3.502084006e-13 1.01151187e-13 12 
0.013025 8.522396559e-14 4.920744595e-14 3 
0.013075 1.091420353e-13 5.463187964e-14 4 
0.013125 1.955315375e-13 7.391822815e-14 7 
0.013175 1.900753103e-13 7.187018245e-14 7 
0.013225 3.001797427e-13 9.053695011e-14 11 
0.013275 2.744548671e-13 8.681950529e-14 10 
0.013325 2.925578344e-13 8.825167119e-14 11 
0.013375 8.081606086e-14 4.668717106e-14 3 
0.013425 2.356148592e-13 7.863257422e-14 9 
0.013475 1.814059062e-13 6.858676013e-14 7 
0.013525 1.529172054e-13 6.246845186e-14 6 
0.013575 5.137597735e-14 3.634737356e-14 2 
0.013625 1.764190289e-13 6.66971752e-14 7 
0.013675 7.39012294e-14 4.268534693e-14 3 
0.013725 7.649127655e-14 4.418709157e-14 3 
0.013775 1.69396941e-13 6.408172534e-14 7 
0.013825 2.672671735e-13 8.062760873e-14 11 
0.013875 7.275750327e-14 4.2082096e-14 3 
0.013925 1.640128055e-13 6.201193572e-14 7 
0.013975 1.886882998e-13 6.676334312e-14 8 
0.014025 1.377578902e-13 5.624772892e-14 6 
0.014075 1.573121321e-13 5.947491716e-14 7 
0.014125 1.546210169e-13 5.847149971e-14 7 
0.014175 2.050479891e-13 6.840833434e-14 9 
0.014225 1.112173628e-13 4.974154537e-14 5 
0.014275 4.35521174e-14 3.079946201e-14 2 
0.014325 1.735158209e-13 6.138622746e-14 8 
0.014375 1.283227059e-13 5.241923769e-14 6 
0.014425 1.447935266e-13 5.475352752e-14 7 
0.014475 1.481923101e-13 5.603668472e-14 7 
0.014525 1.704479647e-13 6.032159102e-14 8 
0.014575 5.946418119e-14 3.433987286e-14 3 
0.014625 1.638934748e-13 5.799021517e-14 8 
0.014675 1.012966928e-13 4.533835818e-14 5 
0.014725 1.196143949e-13 4.884130172e-14 6 
0.014775 1.028080321e-13 4.602423668e-14 5 
0.014825 1.928962584e-14 1.928962584e-14 1 
0.014875 1.352566322e-13 5.116716404e-14 7 
0.014925 9.339473835e-14 4.177960945e-14 5 
0.014975 1.658103818e-13 5.530851032e-14 9 
0.015025 7.587015608e-14 3.797098693e-14 4 
0.015075 9.434133378e-14 4.221313786e-14 5 
0.015125 1.259266138e-13 4.763358315e-14 7 
0.015175 1.231585238e-13 4.656348846e-14 7 
0.015225 1.818412436e-13 5.751968187e-14 10 
0.015275 2.488895707e-13 6.654827865e-14 14 
0.015325 1.589331234e-13 5.305832726e-14 9 
0.015375 1.406793577e-13 4.98221637e-14 8 
0.015425 1.373000419e-13 4.859245695e-14 8 
0.015475 1.83229548e-13 5.528119522e-14 11 
0.015525 1.154497756e-13 4.366189643e-14 7 
0.015575 1.929164564e-13 5.573166326e-14 12 
0.015625 4.7303154e-14 2.731646337e-14 3 
0.015675 1.121265426e-13 4.244129867e-14 7 
0.015725 7.991380805e-14 3.577625586e-14 5 
0.015775 1.087308853e-13 4.114635891e-14 7 
0.015825 7.791234757e-14 3.485269068e-14 5 
0.015875 9.500121411e-14 3.88337329e-14 6 
0.015925 7.546315891e-14 3.378589518e-14 5 
0.015975 1.361798061e-13 4.546326625e-14 9 
0.016025 5.912944065e-14 2.959309609e-14 4 
0.016075 1.18142277e-13 4.179581149e-14 8 
0.016125 9.907404141e-14 3.748866186e-14 7 
0.016175 1.003873859e-13 3.79676484e-14 7 
0.016225 2.455015207e-13 5.960546194e-14 17 
0.016275 1.687091703e-13 4.872787865e-14 12 
0.016325 1.221115633e-13 4.07354118e-14 9 
0.016375 6.753037227e-14 3.020687918e-14 5 
0.016425 5.467776503e-14 2.734925009e-14 4 
0.016475 9.401190791e-14 3.556687089e-14 7 
0.016525 5.354865279e-14 2.680447656e-14 4 
0.016575 1.309854974e-13 4.146790579e-14 10 
0.016625 1.042177079e-13 3.691377577e-14 8 
0.016675 6.470877365e-14 2.898619021e-14 5 
0.016725 3.983940191e-14 2.300804335e-14 3 
0.016775 1.259714618e-13 3.986395785e-14 10 
0.016825 1.429156734e-13 4.130165935e-14 12 
0.016875 7.344014906e-14 2.999945287e-14 6 
0.016925 7.100076877e-14 2.901193907e-14 6 
0.016975 8.487502286e-14 3.214056532e-14 7 
0.017025 1.274435405e-13 3.847599051e-14 11 
0.017075 1.165989331e-13 3.690345279e-14 10 
0.017125 1.141714809e-13 3.614720142e-14 10 
0.017175 5.657991649e-14 2.532529838e-14 5 
0.017225 8.912361612e-14 3.152983009e-14 8 
0.017275 1.117192854e-13 3.535944831e-14 10 
0.017325 1.111730976e-13 3.519000029e-14 10 
0.017375 3.252426401e-14 1.878742094e-14 3 
0.017425 8.689514878e-14 3.074010674e-14 8 
0.017475 6.436248413e-14 2.629864033e-14 6 
0.017525 8.451201519e-14 2.988943107e-14 8 
0.017575 6.407171173e-14 2.616842528e-14 6 
0.017625 9.214618658e-14 3.074349639e-14 9 
0.017675 1.017096218e-13 3.218709902e-14 10 
0.017725 1.069562545e-13 3.227634766e-14 11 
0.017775 1.085138126e-14 1.085138126e-14 1 
0.017825 7.597106899e-14 2.691638715e-14 8 
0.017875 3.732212391e-14 1.86873765e-14 4 
0.017925 8.554775965e-14 2.854488107e-14 9 
0.017975 7.710312319e-14 2.729168644e-14 8 
0.018025 9.189077654e-14 2.90876372e-14 10 
0.018075 6.380239182e-14 2.416327158e-14 7 
0.018125 8.076654168e-14 2.696348247e-14 9 
0.018175 1.256730817e-13 3.363700241e-14 14 
0.018225 4.442534787e-14 1.991224738e-14 5 
0.018275 1.210149004e-13 3.240777425e-14 14 
0.018325 2.666948565e-14 1.542408601e-14 3 
0.018375 8.605815077e-14 2.724025534e-14 10 
0.018425 9.321817869e-14 2.814415931e-14 11 
0.018475 7.569094323e-14 2.525499764e-14 9 
0.018525 1.043533005e-13 2.898419447e-14 13 
0.018575 7.055743308e-14 2.353166905e-14 9 
0.018625 7.861475862e-14 2.491331256e-14 10 
0.018675 8.735023999e-14 2.637832491e-14 11 
0.018725 5.441535693e-14 2.058703269e-14 7 
0.018775 2.334874738e-14 1.349166082e-14 3 
0.018825 1.067121015e-13 2.855295322e-14 14 
0.018875 6.761141043e-14 2.256416665e-14 9 
0.018925 9.008704733e-14 2.601862243e-14 12 
0.018975 8.037543835e-14 2.427134945e-14 11 
0.019025 3.018505515e-14 1.510436699e-14 4 
0.019075 5.555866878e-14 1.966345151e-14 8 
0.019125 6.427644836e-14 2.145701339e-14 9 
0.019175 4.207932788e-14 1.722325994e-14 6 
0.019225 5.506959431e-14 1.949123572e-14 8 
0.019275 9.562514508e-14 2.559723508e-14 14 
0.019325 2.801115191e-14 1.402991044e-14 4 
0.019375 4.876489789e-14 1.844609429e-14 7 
0.019425 7.101057267e-14 2.145120858e-14 11 
0.019475 4.563474602e-14 1.727541969e-14 7 
0.019525 3.054030977e-14 1.3659846e-14 5 
0.019575 6.972245586e-14 2.104905403e-14 11 
0.019625 6.17451713e-14 1.957590628e-14 10 
0.019675 6.316097363e-14 1.998896806e-14 10 
0.019725 6.706955212e-14 2.024330689e-14 11 
0.019775 5.827379849e-14 1.847288213e-14 10 
0.019825 7.078614819e-14 2.047914357e-14 12 
0.019875 3.523003523e-14 1.439256426e-14 6 
0.019925 7.454993159e-14 2.070230892e-14 13 
0.019975 3.95252032e-14 1.495645956e-14 7 
0.020025 6.150693675e-14 1.855844464e-14 11 
0.020075 6.815277328e-14 1.97444179e-14 12 
0.020125 4.309019323e-14 1.527184319e-14 8 
0.020175 6.011652363e-14 1.816059718e-14 11 
0.020225 6.382682102e-14 1.845503105e-14 12 
0.020275 5.185166202e-14 1.642932051e-14 10 
0.020325 5.12945672e-14 1.625598335e-14 10 
0.020375 5.249904686e-14 1.663623835e-14 10 
0.020425 5.461609505e-14 1.649800673e-14 11 
0.020475 2.842793092e-14 1.16288455e-14 6 
0.020525 7.498633223e-14 1.938621934e-14 15 
0.020575 3.968358902e-14 1.404379432e-14 8 
0.020625 3.345555201e-14 1.266613722e-14 7 
0.020675 7.650923893e-14 1.917475424e-14 16 
0.020725 3.616254085e-14 1.280006471e-14 8 
0.020775 4.060708074e-14 1.355703555e-14 9 
0.020825 4.339027485e-14 1.447224115e-14 9 
0.020875 3.565941195e-14 1.263231269e-14 8 
0.020925 1.400598536e-14 8.087395362e-15 3 
0.020975 2.933788331e-14 1.110363127e-14 7 
0.021025 4.189172606e-14 1.32721921e-14 10 
0.021075 3.966713537e-14 1.325519009e-14 9 
0.021125 7.167609124e-14 1.741292168e-14 17 
0.021175 4.230396068e-14 1.339513734e-14 10 
0.021225 2.034485024e-14 9.116484526e-15 5 
0.021275 3.705618694e-14 1.237370665e-14 9 
0.021325 5.092535137e-14 1.417698478e-14 13 
0.021375 3.992388967e-14 1.267222432e-14 10 
0.021425 3.305035973e-14 1.10408025e-14 9 
0.021475 4.602762071e-14 1.330892039e-14 12 
0.021525 4.150741425e-14 1.253633879e-14 11 
0.021575 2.963170798e-14 1.049161153e-14 8 
0.021625 1.818384788e-14 8.143793282e-15 5 
0.021675 3.756582068e-14 1.190045788e-14 10 
0.021725 4.021561836e-14 1.215339935e-14 11 
0.021775 4.545932037e-14 1.263398194e-14 13 
0.021825 4.785246175e-14 1.28096868e-14 14 
0.021875 3.869650249e-14 1.168856039e-14 11 
0.021925 4.225212703e-14 1.173664166e-14 13 
0.021975 4.054675962e-14 1.173360321e-14 12 
0.022025 2.893145421e-14 9.651601494e-15 9 
0.022075 4.244228911e-14 1.179461812e-14 13 
0.022125 4.955089314e-14 1.241433557e-14 16 
0.022175 3.753273763e-14 1.086338114e-14 12 
0.022225 3.775222851e-14 1.092394175e-14 12 
0.022275 1.557245275e-14 6.974332589e-15 5 
0.022325 4.635661774e-14 1.200049266e-14 15 
0.022375 3.925157547e-14 1.091664085e-14 13 
0.022425 3.470857043e-14 1.005215281e-14 12 
0.022475 4.150216357e-14 1.112664491e-14 14 
0.022525 3.168119473e-14 9.575616046e-15 11 
0.022575 2.545873817e-14 8.502461822e-15 9 
0.022625 1.695473959e-14 6.937822708e-15 6 
0.022675 3.720911339e-14 9.955620737e-15 14 
0.022725 2.685757461e-14 8.511463892e-15 10 
0.022775 1.280253189e-14 5.739746402e-15 5 
0.022825 3.179626787e-14 9.20541914e-15 12 
0.022875 2.813777508e-14 8.511849014e-15 11 
0.022925 1.744471173e-14 6.600722687e-15 7 
0.022975 2.513737304e-14 7.973320181e-15 10 
0.023025 2.634401475e-14 7.961983904e-15 11 
0.023075 3.113140831e-14 8.645515589e-15 13 
0.023125 1.902458064e-14 6.74347007e-15 8 
0.023175 2.422452205e-14 7.684714005e-15 10 
0.023225 3.103897236e-14 8.637683289e-15 13 
0.023275 3.027835726e-14 8.421311766e-15 13 
0.023325 1.789281718e-14 6.335439792e-15 8 
0.023375 1.448703288e-14 5.924078046e-15 6 
0.023425 1.115740506e-14 4.999510077e-15 5 
0.023475 2.405184434e-14 7.276932038e-15 11 
0.023525 2.14661073e-14 6.805735822e-15 10 
0.023575 1.724173356e-14 6.116323638e-15 8 
0.023625 3.049298737e-14 7.892117661e-15 15 
0.023675 1.62828982e-14 5.766173713e-15 8 
0.023725 1.821028427e-14 6.078102412e-15 9 
0.023775 3.153585526e-14 7.891508166e-15 16 
0.023825 2.195901361e-14 6.651031513e-15 11 
0.023875 3.141325549e-14 7.862987154e-15 16 
0.023925 2.850726812e-14 7.371497431e-15 15 
0.023975 1.732609841e-14 5.798074975e-15 9 
0.024025 2.785024623e-14 7.212572328e-15 15 
0.024075 2.127993762e-14 6.153664011e-15 12 
0.024125 1.683254226e-14 5.622509965e-15 9 
0.024175 2.295642481e-14 6.381891668e-15 13 
0.024225 2.760947308e-14 6.919962011e-15 16 
0.024275 2.599746738e-14 6.740858965e-15 15 
0.024325 2.077388209e-14 6.007870078e-15 12 
0.024375 1.162075003e-14 4.402758665e-15 7 
0.024425 2.513999814e-14 6.519704998e-15 15 
0.024475 1.287381727e-14 4.564160508e-15 8 
0.024525 1.976792888e-14 5.718333303e-15 12 
0.024575 2.206276462e-14 5.9211793e-15 14 
0.024625 1.885643044e-14 5.457305012e-15 12 
0.024675 2.954388385e-14 6.788183646e-15 19 
0.024725 1.536709151e-14 4.869767319e-15 10 
0.024775 2.864687704e-14 6.594096886e-15 19 
0.024825 1.763811315e-14 5.110147405e-15 12 
0.024875 2.064461705e-14 5.531459357e-15 14 
0.024925 1.797815091e-14 5.206130775e-15 12 
0.024975 1.545456888e-14 4.671044401e-15 11 
0.025025 1.243176836e-14 4.16229679e-15 9 
0.025075 1.393648373e-14 4.424647941e-15 10 
0.025125 1.629976021e-14 4.710125873e-15 12 
0.025175 8.05421896e-15 3.299986194e-15 6 
0.025225 1.838110968e-14 4.929325525e-15 14 
0.025275 1.195146913e-14 3.995215175e-15 9 
0.025325 1.25107966e-14 3.967333127e-15 10 
0.025375 1.249414494e-14 3.966003066e-15 10 
0.025425 9.852349726e-15 3.492222112e-15 8 
0.025475 1.356903804e-14 4.103852186e-15 11 
0.025525 1.229549908e-14 3.891848787e-15 10 
0.025575 1.207280248e-14 3.830796102e-15 10 
0.025625 1.383111898e-14 4.002328854e-15 12 
0.025675 1.27470335e-14 3.85425266e-15 11 
0.025725 1.05953708e-14 3.548624086e-15 9 
0.025775 1.8413389e-14 4.60887481e-15 16 
0.025825 1.67286292e-14 4.334285239e-15 15 
0.025875 1.730513025e-14 4.333521933e-15 16 
0.025925 9.547760581e-15 3.189359395e-15 9 
0.025975 1.566913613e-14 4.052085806e-15 15 
0.026025 1.977385171e-14 4.552173627e-15 19 
0.026075 8.046016473e-15 2.851215028e-15 8 
0.026125 1.293467274e-14 3.594798781e-15 13 
0.026175 9.094900756e-15 3.040434842e-15 9 
0.026225 1.299177111e-14 3.616343142e-15 13 
0.026275 9.904752868e-15 3.134012316e-15 10 
0.026325 1.035176845e-14 3.12547925e-15 11 
0.026375 7.579433531e-15 2.68726334e-15 8 
0.026425 8.461635142e-15 2.828698608e-15 9 
0.026475 1.21771022e-14 3.389351786e-15 13 
0.026525 1.400426691e-14 3.626766913e-15 15 
0.026575 1.249178228e-14 3.343794573e-15 14 
0.026625 5.265626787e-15 2.159910673e-15 6 
0.026675 2.734400764e-15 1.579849338e-15 3 
0.026725 9.728154376e-15 2.941959712e-15 11 
0.026775 1.669037009e-14 3.838364174e-15 19 
0.026825 1.429270091e-14 3.471237964e-15 17 
0.026875 9.692200339e-15 2.802286739e-15 12 
0.026925 1.337999681e-14 3.352346364e-15 16 
0.026975 9.21918065e-15 2.787473215e-15 11 
0.027025 1.331693223e-14 3.237466663e-15 17 
0.027075 1.087214789e-14 2.9130576e-15 14 
0.027125 6.758237954e-15 2.26213514e-15 9 
0.027175 1.173602064e-14 2.941842601e-15 16 
0.027225 7.432534654e-15 2.356018222e-15 10 
0.027275 9.742817133e-15 2.708287227e-15 13 
0.027325 1.163542586e-14 2.916888811e-15 16 
0.027375 1.016270633e-14 2.722547219e-15 14 
0.027425 7.920217804e-15 2.396207176e-15 11 
0.027475 5.739291871e-15 2.033454507e-15 8 
0.027525 1.07538923e-14 2.786014062e-15 15 
0.027575 8.076899643e-15 2.33591744e-15 12 
0.027625 8.177917944e-15 2.36616384e-15 12 
0.027675 6.121317812e-15 2.043671932e-15 9 
0.027725 8.39149967e-15 2.329494321e-15 13 
0.027775 5.109736078e-15 1.808969654e-15 8 
0.027825 7.755935405e-15 2.24000174e-15 12 
0.027875 5.620280517e-15 1.876793349e-15 9 
0.027925 6.761251174e-15 2.041968389e-15 11 
0.027975 6.145214141e-15 1.94764443e-15 10 
0.028025 6.140526718e-15 1.949810252e-15 10 
0.028075 8.493626934e-15 2.276289703e-15 14 
0.028125 5.395434974e-15 1.802490554e-15 9 
0.028175 1.008869292e-14 2.451421392e-15 17 
0.028225 7.400545635e-15 2.056378191e-15 13 
0.028275 6.721825932e-15 1.943751346e-15 12 
0.028325 9.447198064e-15 2.297822202e-15 17 
0.028375 4.957461146e-15 1.655714921e-15 9 
0.028425 7.323412598e-15 2.03488153e-15 13 
0.028475 8.093677223e-15 2.09479282e-15 15 
0.028525 5.455619049e-15 1.730382095e-15 10 
0.028575 3.092493895e-15 1.264302298e-15 6 
0.028625 6.403534641e-15 1.850626884e-15 12 
0.028675 8.894847771e-15 2.15979075e-15 17 
0.028725 4.217748514e-15 1.494850419e-15 8 
0.028775 5.596979024e-15 1.691192323e-15 11 
0.028825 5.599446756e-15 1.692476968e-15 11 
0.028875 5.911193591e-15 1.709843726e-15 12 
0.028925 1.111538104e-14 2.37290988e-15 22 
0.028975 1.085509919e-14 2.318846931e-15 22 
0.029025 5.322364268e-15 1.606305805e-15 11 
0.029075 6.435624068e-15 1.786885688e-15 13 
0.029125 6.95043479e-15 1.797267191e-15 15 
0.029175 1.032410979e-14 2.20362179e-15 22 
0.029225 7.044138419e-15 1.821504708e-15 15 
0.029275 5.510459886e-15 1.592324604e-15 12 
0.029325 4.522068134e-15 1.43038503e-15 10 
0.029375 4.413799616e-15 1.397215113e-15 10 
0.029425 9.279795665e-15 2.027055307e-15 21 
0.029475 7.032804765e-15 1.760075757e-15 16 
0.029525 5.706874041e-15 1.584179624e-15 13 
0.029575 7.128803338e-15 1.78342313e-15 16 
0.029625 6.098267107e-15 1.630840401e-15 14 
0.029675 3.776077299e-15 1.259040258e-15 9 
0.029725 4.318508177e-15 1.367701118e-15 10 
0.029775 5.544686993e-15 1.539200014e-15 13 
0.029825 5.852103659e-15 1.565656335e-15 14 
0.029875 6.128137862e-15 1.584059799e-15 15 
0.029925 4.793574443e-15 1.385048179e-15 12 
0.029975 7.713940514e-15 1.77152444e-15 19 
0.030025 8.435880221e-15 1.842828573e-15 21 
0.030075 5.68262816e-15 1.519664936e-15 14 
0.030125 3.136746153e-15 1.109530455e-15 8 
0.030175 8.313057901e-15 1.815470313e-15 21 
0.030225 5.439983154e-15 1.454481797e-15 14 
0.030275 6.186522871e-15 1.547914225e-15 16 
0.030325 5.043772117e-15 1.399462366e-15 13 
0.030375 3.756649805e-15 1.188403464e-15 10 
0.030425 3.767147235e-15 1.192283651e-15 10 
0.030475 5.567696147e-15 1.438353402e-15 15 
0.030525 4.502345792e-15 1.300314462e-15 12 
0.030575 3.643393081e-15 1.152863565e-15 10 
0.030625 5.505363563e-15 1.42225302e-15 15 
0.030675 5.810340317e-15 1.453500526e-15 16 
0.030725 7.199130481e-15 1.610279988e-15 20 
0.030775 5.671242724e-15 1.418490716e-15 16 
0.030825 5.71444847e-15 1.429226572e-15 16 
0.030875 3.564913629e-15 1.127522685e-15 10 
0.030925 4.89635947e-15 1.309232679e-15 14 
0.030975 5.294293507e-15 1.367620203e-15 15 
0.031025 3.816025684e-15 1.151154527e-15 11 
0.031075 5.162975906e-15 1.333652675e-15 15 
0.031125 6.114968041e-15 1.441777077e-15 18 
0.031175 4.817018091e-15 1.287626295e-15 14 
0.031225 3.416033509e-15 1.080741323e-15 10 
0.031275 4.702884982e-15 1.257140175e-15 14 
0.031325 5.038530834e-15 1.301305573e-15 15 
0.031375 4.70673697e-15 1.258199769e-15 14 
0.031425 4.659159045e-15 1.245523642e-15 14 
0.031475 3.019960412e-15 1.007035035e-15 9 
0.031525 4.954025643e-15 1.279516202e-15 15 
0.031575 5.592692567e-15 1.356680878e-15 17 
0.031625 5.578870756e-15 1.353274519e-15 17 
0.031675 4.532414674e-15 1.211562595e-15 14 
0.031725 4.179953952e-15 1.159379136e-15 13 
0.031775 3.543154983e-15 1.068501843e-15 11 
0.031825 5.43166015e-15 1.31753197e-15 17 
0.031875 4.500150129e-15 1.202778685e-15 14 
0.031925 3.511322198e-15 1.058787845e-15 11 
0.031975 4.138930598e-15 1.148250193e-15 13 
0.032025 3.797462485e-15 1.096328268e-15 12 
0.032075 4.386985479e-15 1.172537135e-15 14 
0.032125 5.361923885e-15 1.300581272e-15 17 
0.032175 4.39877276e-15 1.175723686e-15 14 
0.032225 4.685894439e-15 1.209985079e-15 15 
0.032275 4.6606778e-15 1.203466419e-15 15 
0.032325 4.30717549e-15 1.151171117e-15 14 
0.032375 8.018566587e-15 1.572639561e-15 26 
0.032425 6.773215286e-15 1.444086243e-15 22 
0.032475 6.466548413e-15 1.411210888e-15 21 
0.032525 3.371972862e-15 1.01678453e-15 11 
0.032575 5.491482993e-15 1.294395208e-15 18 
0.032625 4.864954648e-15 1.216269992e-15 16 
0.032675 3.635249686e-15 1.049417995e-15 12 
0.032725 3.634717281e-15 1.049291818e-15 12 
0.032775 5.438760478e-15 1.281963853e-15 18 
0.032825 4.531839835e-15 1.170151344e-15 15 
0.032875 5.104944476e-15 1.238138244e-15 17 
0.032925 7.510381871e-15 1.502104488e-15 25 
0.032975 2.399669498e-15 8.484191316e-16 8 
0.033025 5.385888634e-15 1.269480407e-15 18 
0.033075 5.967504712e-15 1.334383292e-15 20 
0.033125 3.573028161e-15 1.031448819e-15 12 
0.033175 4.15873128e-15 1.111470096e-15 14 
0.033225 5.934643711e-15 1.327031743e-15 20 
0.033275 4.443165942e-15 1.147222218e-15 15 
0.033325 5.322797828e-15 1.254597109e-15 18 
0.033375 4.722257795e-15 1.18056623e-15 16 
0.033425 5.307026014e-15 1.250880458e-15 18 
0.033475 6.769748294e-15 1.411591001e-15 23 
0.033525 3.524560658e-15 1.017453101e-15 12 
0.033575 6.163170968e-15 1.344915686e-15 21 
0.033625 4.688114345e-15 1.172029494e-15 16 
0.033675 2.930180431e-15 9.266087853e-16 10 
0.033725 3.5130095e-15 1.014123457e-15 12 
0.033775 1.755109939e-15 7.165238613e-16 6 
0.033825 2.628540352e-15 8.761838303e-16 9 
0.033875 5.255322296e-15 1.238703328e-15 18 
0.033925 3.786998617e-15 1.05033495e-15 13 
0.033975 4.075129185e-15 1.089130259e-15 14 
0.034025 4.073955288e-15 1.088820993e-15 14 
0.034075 6.099246007e-15 1.330973758e-15 21 
0.034125 4.93183253e-15 1.196153857e-15 17 
0.034175 5.811816531e-15 1.299586719e-15 20 
0.034225 5.505774873e-15 1.263118002e-15 19 
0.034275 3.767744569e-15 1.044988661e-15 13 
0.034325 5.506570055e-15 1.263310228e-15 19 
0.034375 5.21360038e-15 1.228875566e-15 18 
0.034425 6.061121164e-15 1.322666349e-15 21 
0.034475 2.308793631e-15 8.162910658e-16 8 
0.034525 5.193182166e-15 1.224058145e-15 18 
0.034575 4.039635655e-15 1.079657388e-15 14 
0.034625 3.172782319e-15 9.566474584e-16 11 
0.034675 6.075249911e-15 1.325783418e-15 21 
0.034725 2.316408004e-15 8.190242011e-16 8 
0.034775 4.616373724e-15 1.154127835e-15 16 
0.034825 4.611208094e-15 1.152831949e-15 16 
0.034875 5.196688533e-15 1.224906847e-15 18 
0.034925 6.626259789e-15 1.381731581e-15 23 
0.034975 3.754085651e-15 1.041251112e-15 13 
0.035025 6.064629542e-15 1.32350441e-15 21 
0.035075 5.760627595e-15 1.288161896e-15 20 
0.035125 4.325087142e-15 1.116761518e-15 15 
0.035175 4.030940961e-15 1.077357264e-15 14 
0.035225 4.912558151e-15 1.191507327e-15 17 
0.035275 4.335810678e-15 1.119556017e-15 15 
0.035325 8.641924339e-15 1.57784767e-15 30 
0.035375 7.479761359e-15 1.466956991e-15 26 
0.035425 4.599336545e-15 1.149889403e-15 16 
0.035475 3.756089792e-15 1.041786228e-15 13 
0.035525 5.750650302e-15 1.285928954e-15 20 
0.035575 3.756081449e-15 1.041791563e-15 13 
0.035625 5.1699051e-15 1.218603718e-15 18 
0.035675 6.629556313e-15 1.382437511e-15 23 
0.035725 5.178415125e-15 1.220620316e-15 18 
0.035775 4.919089384e-15 1.19314662e-15 17 
0.035825 6.345875638e-15 1.35300396e-15 22 
0.035875 2.880882713e-15 9.110632629e-16 10 
0.035925 2.870158738e-15 9.076477932e-16 10 
0.035975 4.905433569e-15 1.189801892e-15 17 
0.036025 4.324688829e-15 1.116688879e-15 15 
0.036075 5.204574092e-15 1.226803893e-15 18 
0.036125 4.022406586e-15 1.075079344e-15 14 
0.036175 4.921925198e-15 1.193775873e-15 17 
0.036225 5.494576329e-15 1.260615779e-15 19 
0.036275 4.901661989e-15 1.188878519e-15 17 
0.036325 5.206381282e-15 1.227199333e-15 18 
0.036375 4.321024807e-15 1.115758443e-15 15 
0.036425 6.358462312e-15 1.355681063e-15 22 
0.036475 3.190128973e-15 9.619076905e-16 11 
0.036525 5.495079397e-15 1.260738415e-15 19 
0.036575 5.206323109e-15 1.227192844e-15 18 
0.036625 4.348991689e-15 1.122957766e-15 15 
0.036675 4.907731272e-15 1.190352236e-15 17 
0.036725 6.946727031e-15 1.418066613e-15 24 
0.036775 4.353289257e-15 1.124090531e-15 15 
0.036825 3.753538301e-15 1.041119542e-15 13 
0.036875 4.612644452e-15 1.153219724e-15 16 
0.036925 6.059960944e-15 1.322487947e-15 21 
0.036975 4.93908851e-15 1.197970923e-15 17 
0.037025 4.618601046e-15 1.154715445e-15 16 
0.037075 3.1909737e-15 9.621608858e-16 11 
0.037125 5.811630858e-15 1.299599536e-15 20 
0.037175 4.636446369e-15 1.159182182e-15 16 
0.037225 5.22887993e-15 1.23250883e-15 18 
0.037275 3.773546371e-15 1.0466302e-15 13 
0.037325 3.197068144e-15 9.639879949e-16 11 
0.037375 6.074720245e-15 1.325695179e-15 21 
0.037425 3.763029456e-15 1.043732771e-15 13 
0.037475 4.345948108e-15 1.122142313e-15 15 
0.037525 7.231814059e-15 1.44642513e-15 25 
0.037575 7.52285779e-15 1.475398648e-15 26 
0.037625 6.976170594e-15 1.424056757e-15 24 
0.037675 5.198061073e-15 1.225233233e-15 18 
0.037725 5.22439627e-15 1.231469629e-15 18 
0.037775 4.062640987e-15 1.085831786e-15 14 
0.037825 3.482896656e-15 1.005450418e-15 12 
0.037875 5.530241374e-15 1.268775398e-15 19 
0.037925 4.912437901e-15 1.191485686e-15 17 
0.037975 6.074024465e-15 1.325521326e-15 21 
0.038025 6.936429113e-15 1.415918618e-15 24 
0.038075 5.796099618e-15 1.296073548e-15 20 
0.038125 5.500040961e-15 1.261829953e-15 19 
0.038175 8.128019564e-15 1.53608677e-15 28 
0.038225 7.534286878e-15 1.477633851e-15 26 
0.038275 7.233754429e-15 1.446787259e-15 25 
0.038325 3.76504015e-15 1.044263311e-15 13 
0.038375 5.77342155e-15 1.291026468e-15 20 
0.038425 8.108070592e-15 1.532329579e-15 28 
0.038475 5.196411233e-15 1.224841403e-15 18 
0.038525 4.629077844e-15 1.157311223e-15 16 
0.038575 6.065150401e-15 1.32353922e-15 21 
0.038625 4.911294383e-15 1.191185581e-15 17 
0.038675 4.63251698e-15 1.158144467e-15 16 
0.038725 5.793526695e-15 1.295493507e-15 20 
0.038775 5.77235254e-15 1.290774659e-15 20 
0.038825 5.477709406e-15 1.256703897e-15 19 
0.038875 5.188518369e-15 1.222964093e-15 18 
0.038925 5.195837494e-15 1.224691794e-15 18 
0.038975 7.210142849e-15 1.442049802e-15 25 
0.039025 6.341570084e-15 1.352052587e-15 22 
0.039075 4.60518194e-15 1.151321452e-15 16 
0.039125 6.050161018e-15 1.320261269e-15 21 
0.039175 6.623538089e-15 1.381125986e-15 23 
0.039225 4.035570661e-15 1.07856795e-15 14 
0.039275 4.612615004e-15 1.153158513e-15 16 
0.039325 4.026168871e-15 1.076052009e-15 14 
0.039375 4.300366221e-15 1.110364962e-15 15 
0.039425 3.151911188e-15 9.503531433e-16 11 
0.039475 4.881868995e-15 1.184042387e-15 17 
0.039525 7.455050943e-15 1.462080615e-15 26 
0.039575 8.02237647e-15 1.516108058e-15 28 
0.039625 5.442932599e-15 1.248707905e-15 19 
0.039675 4.585804565e-15 1.146461043e-15 16 
0.039725 4.575787299e-15 1.143954642e-15 16 
0.039775 4.859113611e-15 1.178518661e-15 17 
0.039825 5.143335238e-15 1.212302855e-15 18 
0.039875 5.144618009e-15 1.212605054e-15 18 
0.039925 3.997559504e-15 1.0683995e-15 14 
0.039975 5.417735599e-15 1.242923402e-15 19 
0.040025 5.696362244e-15 1.273755384e-15 20 
0.040075 7.687177686e-15 1.47940283e-15 27 
0.040125 4.831541291e-15 1.171825263e-15 17 
0.040175 5.68595545e-15 1.271419655e-15 20 
0.040225 4.824373704e-15 1.170088004e-15 17 
0.040275 4.822788005e-15 1.169699838e-15 17 
0.040325 7.932784771e-15 1.499158869e-15 28 
0.040375 7.075299615e-15 1.415063675e-15 25 
0.040425 6.221079951e-15 1.326340907e-15 22 
0.040475 5.367573685e-15 1.231408938e-15 19 
0.040525 5.646245037e-15 1.262539856e-15 20 
0.040575 6.486003391e-15 1.352427317e-15 23 
0.040625 4.506505393e-15 1.126627203e-15 16 
0.040675 7.595510561e-15 1.461758699e-15 27 
0.040725 5.061852908e-15 1.193090269e-15 18 
0.040775 6.178394625e-15 1.317238456e-15 22 
0.040825 3.927538865e-15 1.049679071e-15 14 
0.040875 4.202928575e-15 1.085191629e-15 15 
0.040925 5.876707361e-15 1.28240291e-15 21 
0.040975 7.266448671e-15 1.425068212e-15 26 
0.041025 3.90588239e-15 1.043891902e-15 14 
0.041075 6.132193981e-15 1.307389211e-15 22 
0.041125 8.62967876e-15 1.549936872e-15 31 
0.041175 6.116791027e-15 1.304106125e-15 22 
0.041225 4.442239653e-15 1.110562552e-15 16 
0.041275 5.824407971e-15 1.270991272e-15 21 
0.041325 3.875867195e-15 1.035870137e-15 14 
0.041375 4.977129706e-15 1.173122359e-15 18 
0.041425 5.803269646e-15 1.266378538e-15 21 
0.041475 7.720903118e-15 1.459115829e-15 28 
0.041525 5.229186625e-15 1.19966222e-15 19 
0.041575 7.421600108e-15 1.428293686e-15 27 
0.041625 5.767314545e-15 1.258537417e-15 21 
0.041675 5.760306651e-15 1.2570068e-15 21 
0.041725 4.927959934e-15 1.161535201e-15 18 
0.041775 5.193750312e-15 1.191539946e-15 19 
0.041825 4.363244848e-15 1.090819029e-15 16 
0.041875 7.625253768e-15 1.441049216e-15 28 
0.041925 5.978561523e-15 1.274644062e-15 22 
0.041975 4.885325266e-15 1.151488429e-15 18 
0.042025 3.795570737e-15 1.014420729e-15 14 
0.042075 3.251626169e-15 9.386689929e-16 12 
0.042125 6.222837439e-15 1.297567789e-15 23 
0.042175 5.402133226e-15 1.207960101e-15 20 
0.042225 2.691887698e-15 8.512596589e-16 10 
0.042275 5.905113682e-15 1.258993919e-15 22 
0.042325 4.555436678e-15 1.104877471e-15 17 
0.042375 5.093085559e-15 1.168451047e-15 19 
0.042425 7.721176247e-15 1.433823224e-15 29 
0.042475 3.206163582e-15 9.255487939e-16 12 
0.042525 5.860185984e-15 1.249410361e-15 22 
0.042575 5.84716189e-15 1.246642326e-15 22 
0.042625 8.203258012e-15 1.473388329e-15 31 
0.042675 4.775692883e-15 1.125661555e-15 18 
0.042725 5.011258561e-15 1.14968303e-15 19 
0.042775 6.849988257e-15 1.343415514e-15 26 
0.042825 4.994385525e-15 1.145827939e-15 19 
0.042875 5.768155207e-15 1.229811375e-15 22 
0.042925 3.926339001e-15 1.01379968e-15 15 
0.042975 3.924267539e-15 1.013263046e-15 15 
0.043025 5.472490207e-15 1.194232229e-15 21 
0.043075 3.909276497e-15 1.009407438e-15 15 
0.043125 3.904610964e-15 1.008215029e-15 15 
0.043175 5.438458988e-15 1.186809129e-15 21 
0.043225 4.665786436e-15 1.099765548e-15 18 
0.043275 6.187915632e-15 1.26316521e-15 24 
0.043325 5.396022977e-15 1.177544016e-15 21 
0.043375 4.096978868e-15 1.02427196e-15 16 
0.043425 5.62980278e-15 1.200313662e-15 22 
0.043475 4.370889713e-15 1.060122364e-15 17 
0.043525 5.102790841e-15 1.141048695e-15 20 
0.043575 3.544557158e-15 9.473625989e-16 14 
0.043625 4.058358129e-15 1.014609479e-15 16 
0.043675 6.325199117e-15 1.265117887e-15 25 
0.043725 5.55966997e-15 1.185414683e-15 22 
0.043775 5.804677424e-15 1.210447754e-15 23 
0.043825 7.017421672e-15 1.326235858e-15 28 
0.043875 6.505140426e-15 1.275833512e-15 26 
0.043925 4.271950828e-15 1.036164942e-15 17 
0.043975 6.229346078e-15 1.245911671e-15 25 
0.044025 5.481719334e-15 1.168759882e-15 22 
0.044075 3.975222012e-15 9.938379515e-16 16 
0.044125 4.940710698e-15 1.104843677e-15 20 
0.044175 5.912921329e-15 1.207077996e-15 24 
0.044225 5.157404423e-15 1.125483312e-15 21 
0.044275 4.164236791e-15 1.01002472e-15 17 
0.044325 4.893885871e-15 1.094405936e-15 20 
0.044375 3.921639065e-15 9.805035629e-16 16 
0.044425 4.13785719e-15 1.003664564e-15 17 
0.044475 4.625414692e-15 1.061236296e-15 19 
0.044525 4.574931107e-15 1.049667237e-15 19 
0.044575 2.638233679e-15 7.954839359e-16 11 
0.044625 5.040704272e-15 1.100041775e-15 21 
0.044675 6.205518911e-15 1.217131262e-15 26 
0.044725 4.311804525e-15 1.016359374e-15 18 
0.044775 5.255499462e-15 1.120542687e-15 22 
0.044825 4.512466475e-15 1.035324994e-15 19 
0.044875 4.242304569e-15 1.000023519e-15 18 
0.044925 4.709945033e-15 1.053287925e-15 20 
0.044975 5.680647556e-15 1.159750239e-15 24 
0.045025 6.352147525e-15 1.222600154e-15 27 
0.045075 5.151131016e-15 1.098331057e-15 22 
0.045125 5.869543363e-15 1.174026033e-15 25 
0.045175 3.962351792e-15 9.611560257e-16 17 
0.045225 3.720178159e-15 9.301253903e-16 16 
0.045275 4.626317186e-15 1.034681796e-15 20 
0.045325 4.172466899e-15 9.835727999e-16 18 
0.045375 5.038306498e-15 1.07429542e-15 22 
0.045425 5.073179884e-15 1.081686061e-15 22 
0.045475 4.605256232e-15 1.029898423e-15 20 
0.045525 3.868020605e-15 9.382838953e-16 17 
0.045575 3.647233105e-15 9.120215761e-16 16 
0.045625 5.652897363e-15 1.130743341e-15 25 
0.045675 6.105398606e-15 1.175138594e-15 27 
0.045725 4.068439039e-15 9.590779127e-16 18 
0.045775 4.704218828e-15 1.026702452e-15 21 
0.045825 5.154007891e-15 1.074887067e-15 23 
0.045875 4.700670345e-15 1.025961749e-15 21 
0.045925 3.987425558e-15 9.400737547e-16 18 
0.045975 4.41034875e-15 9.863925149e-16 20 
0.046025 4.192918983e-15 9.621306584e-16 19 
0.046075 3.297866279e-15 8.517173484e-16 15 
0.046125 5.450653809e-15 1.090291923e-15 25 
0.046175 6.547597193e-15 1.195721e-15 30 
0.046225 6.10709124e-15 1.154372551e-15 28 
0.046275 5.817942195e-15 1.119863883e-15 27 
0.046325 3.665929371e-15 8.892523302e-16 17 
0.046375 4.989949136e-15 1.040646584e-15 23 
0.046425 5.325544865e-15 1.065430381e-15 25 
0.046475 3.848383647e-15 9.071947911e-16 18 
0.046525 5.543733899e-15 1.087489693e-15 26 
0.046575 4.643988347e-15 9.902848404e-16 22 
0.046625 5.510489022e-15 1.08094835e-15 26 
0.046675 5.0319639e-15 1.027420264e-15 24 
0.046725 4.821977214e-15 1.005700295e-15 23 
0.046775 4.176015417e-15 9.339495893e-16 20 
0.046825 6.043108591e-15 1.12255825e-15 29 
0.046875 4.777877014e-15 9.964710746e-16 23 
0.046925 2.486537597e-15 7.179301531e-16 12 
0.046975 4.094494078e-15 9.158206274e-16 20 
0.047025 3.927692913e-15 9.012032231e-16 19 
0.047075 3.677190383e-15 8.669813041e-16 18 
0.047125 5.106198934e-15 1.021585434e-15 25 
0.047175 4.862306908e-15 9.926564601e-16 24 
0.047225 5.023976371e-15 1.005081932e-15 25 
0.047275 4.236483185e-15 9.247521207e-16 21 
0.047325 3.812327485e-15 8.74795157e-16 19 
0.047375 3.19728352e-15 7.994610198e-16 16 
0.047425 4.963559209e-15 9.930952231e-16 25 
0.047475 3.749429204e-15 8.603916717e-16 19 
0.047525 4.115860846e-15 8.983523459e-16 21 
0.047575 3.147912538e-15 7.872954835e-16 16 
0.047625 4.505290047e-15 9.396237611e-16 23 
0.047675 2.707702106e-15 7.239567288e-16 14 
0.047725 4.679469555e-15 9.554237965e-16 24 
0.047775 3.847365425e-15 8.60532947e-16 20 
0.047825 2.520603174e-15 6.993110105e-16 13 
0.047875 4.032525989e-15 8.803460317e-16 21 
0.047925 3.412518219e-15 8.044646148e-16 18 
0.047975 4.365891231e-15 9.106708222e-16 23 
0.048025 3.024045843e-15 7.56183871e-16 16 
0.048075 5.104066248e-15 9.827462961e-16 27 
0.048125 4.134414382e-15 8.816749418e-16 22 
0.048175 4.825229608e-15 9.465538603e-16 26 
0.048225 4.115445879e-15 8.776445444e-16 22 
0.048275 3.156793089e-15 7.658814215e-16 17 
0.048325 5.729579265e-15 1.029400504e-15 31 
0.048375 2.757227285e-15 7.123839819e-16 15 
0.048425 4.745864532e-15 9.311084232e-16 26 
0.048475 3.857305343e-15 8.419046633e-16 21 
0.048525 3.100592269e-15 7.52263446e-16 17 
0.048575 4.142821997e-15 8.640895483e-16 23 
0.048625 3.790992994e-15 8.276074134e-16 21 
0.048675 3.59027812e-15 8.030413165e-16 20 
0.048725 3.232286186e-15 7.621131853e-16 18 
0.048775 4.057913339e-15 8.463721473e-16 23 
0.048825 2.99691847e-15 7.271394045e-16 17 
0.048875 4.259040284e-15 8.697011707e-16 24 
0.048925 5.139029889e-15 9.545960042e-16 29 
0.048975 4.407883494e-15 8.818893045e-16 25 
0.049025 4.023829745e-15 8.393550948e-16 23 
0.049075 3.63923875e-15 7.943391861e-16 21 
0.049125 3.97386442e-15 8.290879933e-16 23 
0.049175 3.107234926e-15 7.325852695e-16 18 
0.049225 3.427202606e-15 7.667183323e-16 20 
0.049275 2.708547513e-15 6.772735833e-16 16 
0.049325 4.258302002e-15 8.519502397e-16 25 
0.049375 4.38125763e-15 8.597656617e-16 26 
0.049425 4.04519696e-15 8.260486359e-16 24 
0.049475 3.173904765e-15 7.284061705e-16 19 
0.049525 3.852607152e-15 8.037005749e-16 23 
0.049575 4.33737464e-15 8.510597298e-16 26 
0.049625 4.29670494e-15 8.430262371e-16 26 
0.049675 3.340641684e-15 7.472062862e-16 20 
0.049725 4.267213091e-15 8.372226976e-16 26 
0.049775 3.278637878e-15 7.333201298e-16 20 
0.049825 2.907635347e-15 6.855898198e-16 18 
0.049875 2.914485467e-15 6.871493952e-16 18 
0.049925 2.881658796e-15 6.793317222e-16 18 
0.049975 4.013622287e-15 8.031208161e-16 25 
0.050025 4.001722844e-15 8.006823422e-16 25 
0.050075 2.988395527e-15 6.857543873e-16 19 
0.050125 3.005939605e-15 6.899700568e-16 19 
0.050175 2.22818369e-15 5.956847986e-16 14 
0.050225 4.434579639e-15 8.385077987e-16 28 
0.050275 4.062358e-15 7.968503704e-16 26 
0.050325 2.937189075e-15 6.739375204e-16 19 
0.050375 3.589075816e-15 7.486378229e-16 23 
0.050425 5.207354194e-15 8.935290294e-16 34 
0.050475 3.534500537e-15 7.372360009e-16 23 
0.050525 4.573947699e-15 8.354178766e-16 30 
0.050575 4.374659171e-15 8.126055272e-16 29 
0.050625 4.18676787e-15 7.915193549e-16 28 
0.050675 4.515613061e-15 8.24834349e-16 30 
0.050725 4.216174782e-15 7.971122813e-16 28 
0.050775 3.428834473e-15 7.15257945e-16 23 
0.050825 4.187152267e-15 7.916427018e-16 28 
0.050875 3.542007057e-15 7.233164362e-16 24 
0.050925 3.837662198e-15 7.529623797e-16 26 
0.050975 3.673755374e-15 7.350132481e-16 25 
0.051025 3.225181303e-15 6.878647037e-16 22 
0.051075 4.08388502e-15 7.720228833e-16 28 
0.051125 3.465919778e-15 7.077575883e-16 24 
0.051175 2.598738213e-15 6.127697775e-16 18 
0.051225 3.855444575e-15 7.423120691e-16 27 
0.051275 2.98454947e-15 6.5173792e-16 21 
0.051325 3.53802239e-15 7.078460898e-16 25 
0.051375 4.502525511e-15 7.962321933e-16 32 
0.051425 2.535592076e-15 5.978645483e-16 18 
0.051475 4.645145742e-15 8.089066512e-16 33 
0.051525 3.762073949e-15 7.246997062e-16 27 
0.051575 2.649127751e-15 6.080695089e-16 19 
0.051625 2.380019101e-15 5.774199526e-16 17 
0.051675 5.376314232e-15 8.613518243e-16 39 
0.051725 2.743223904e-15 6.13591481e-16 20 
0.051775 2.471844494e-15 5.82774985e-16 18 
0.051825 3.00560578e-15 6.411295306e-16 22 
0.051875 3.11606621e-15 6.499148441e-16 23 
0.051925 3.220881683e-15 6.577231263e-16 24 
0.051975 2.564229475e-15 5.886072067e-16 19 
0.052025 2.811616087e-15 6.138234411e-16 21 
0.052075 3.583182789e-15 6.898408376e-16 27 
0.052125 3.962882154e-15 7.238967386e-16 30 
0.052175 2.758461007e-15 6.023270264e-16 21 
0.052225 3.256883279e-15 6.516994482e-16 25 
0.052275 3.283849123e-15 6.570014753e-16 25 
0.052325 3.280323406e-15 6.563841401e-16 25 
0.052375 2.199890717e-15 5.338447697e-16 17 
0.052425 3.47362811e-15 6.686720875e-16 27 
0.052475 3.082447439e-15 6.294747232e-16 24 
0.052525 3.076972297e-15 6.282666159e-16 24 
0.052575 2.651826344e-15 5.789364367e-16 21 
0.052625 4.566089657e-15 7.613910295e-16 36 
0.052675 3.510004391e-15 6.634895708e-16 28 
0.052725 2.898884599e-15 6.045864421e-16 23 
0.052775 3.619533952e-15 6.723042962e-16 29 
0.052825 2.880522414e-15 6.009238047e-16 23 
0.052875 2.347110918e-15 5.386922448e-16 19 
0.052925 2.966240895e-15 6.057743188e-16 24 
0.052975 1.846453654e-15 4.769518278e-16 15 
0.053025 1.588240562e-15 4.408745818e-16 13 
0.053075 3.761270945e-15 6.758092696e-16 31 
0.053125 2.757666264e-15 5.752123539e-16 23 
0.053175 2.810174852e-15 5.862256451e-16 23 
0.053225 3.111973794e-15 6.106550636e-16 26 
0.053275 3.717553949e-15 6.678733995e-16 31 
0.053325 2.26478131e-15 5.197512234e-16 19 
0.053375 3.561087521e-15 6.504734288e-16 30 
0.053425 2.47551341e-15 5.40359147e-16 21 
0.053475 3.267608038e-15 6.176678639e-16 28 
0.053525 2.451756742e-15 5.351442895e-16 21 
0.053575 2.812672987e-15 5.743543072e-16 24 
0.053625 2.780343022e-15 5.677561055e-16 24 
0.053675 3.739695913e-15 6.613514321e-16 32 
0.053725 2.551829897e-15 5.44260877e-16 22 
0.053775 3.490193452e-15 6.373791161e-16 30 
0.053825 3.087632244e-15 5.94458915e-16 27 
0.053875 2.978934487e-15 5.845070034e-16 26 
0.053925 3.09904502e-15 5.966061992e-16 27 
0.053975 3.529464017e-15 6.341692756e-16 31 
0.054025 3.176152108e-15 6.004974297e-16 28 
0.054075 3.492237601e-15 6.274357419e-16 31 
0.054125 2.111438464e-15 4.845145309e-16 19 
0.054175 3.454845982e-15 6.206158608e-16 31 
0.054225 2.444016212e-15 5.213726318e-16 22 
0.054275 3.324250051e-15 6.071458138e-16 30 
0.054325 2.33155088e-15 5.089168596e-16 21 
0.054375 2.101992876e-15 4.823559805e-16 19 
0.054425 2.062181784e-15 4.732251929e-16 19 
0.054475 1.641633271e-15 4.240050419e-16 15 
0.054525 3.357498341e-15 6.032356342e-16 31 
0.054575 3.026001838e-15 5.720732135e-16 28 
0.054625 3.443698364e-15 6.089231052e-16 32 
0.054675 2.159370213e-15 4.829773648e-16 20 
0.054725 2.232097103e-15 4.872339575e-16 21 
0.054775 3.202313261e-15 5.84814845e-16 30 
0.054825 2.662457527e-15 5.325773193e-16 25 
0.054875 3.068378801e-15 5.699323063e-16 29 
0.054925 3.304423015e-15 5.93642738e-16 31 
0.054975 2.313180589e-15 4.933402839e-16 22 
0.055025 2.641839932e-15 5.284837545e-16 25 
0.055075 2.621919382e-15 5.245184506e-16 25 
0.055125 1.774686978e-15 4.305281831e-16 17 
0.055175 3.11681698e-15 5.691524396e-16 30 
0.055225 2.472222189e-15 5.04765313e-16 24 
0.055275 2.583789238e-15 5.169070451e-16 25 
0.055325 2.985239737e-15 5.545227125e-16 29 
0.055375 1.852893001e-15 4.369478695e-16 18 
0.055425 2.134767179e-15 4.659192237e-16 21 
0.055475 1.720519525e-15 4.173819943e-16 17 
0.055525 3.545335046e-15 5.994090512e-16 35 
0.055575 3.541813431e-15 5.988397008e-16 35 
0.055625 2.509678748e-15 5.020445019e-16 25 
0.055675 2.917063035e-15 5.418619052e-16 29 
0.055725 2.300073267e-15 4.796892506e-16 23 
0.055775 2.795243235e-15 5.283588247e-16 28 
0.055825 2.265004722e-15 4.723772075e-16 23 
0.055875 2.695947496e-15 5.190267156e-16 27 
0.055925 2.851381307e-15 5.296091286e-16 29 
0.055975 1.769089394e-15 4.171226589e-16 18 
0.056025 2.550654373e-15 5.003291897e-16 26 
0.056075 2.431865832e-15 4.864625732e-16 25 
0.056125 2.421962356e-15 4.844946188e-16 25 
0.056175 1.746595611e-15 4.117339882e-16 18 
0.056225 2.516910419e-15 4.936709583e-16 26 
0.056275 1.838853874e-15 4.219367457e-16 19 
0.056325 2.990765313e-15 5.372547357e-16 31 
0.056375 3.276662577e-15 5.620293676e-16 34 
0.056425 3.723130599e-15 5.962550152e-16 39 
0.056475 2.201920878e-15 4.591804139e-16 23 
0.056525 2.768024088e-15 5.141033669e-16 29 
0.056575 1.629037061e-15 3.951753538e-16 17 
0.056625 2.753346067e-15 5.113785892e-16 29 
0.056675 3.100908184e-15 5.398896554e-16 33 
0.056725 2.081953865e-15 4.439412534e-16 22 
0.056775 2.350721968e-15 4.702121026e-16 25 
0.056825 2.62277091e-15 4.957139868e-16 28 
0.056875 3.269158706e-15 5.527022473e-16 35 
0.056925 2.607783043e-15 4.928947527e-16 28 
0.056975 2.03833305e-15 4.346325066e-16 22 
0.057025 2.325799576e-15 4.65227042e-16 25 
0.057075 2.403066903e-15 4.713365356e-16 26 
0.057125 2.486967941e-15 4.786720178e-16 27 
0.057175 2.117021262e-15 4.414756876e-16 23 
0.057225 1.936584959e-15 4.226658558e-16 21 
0.057275 2.191505194e-15 4.474181289e-16 24 
0.057325 1.927461665e-15 4.206412939e-16 21 
0.057375 1.367163065e-15 3.530310781e-16 15 
0.057425 2.912597946e-15 5.149343565e-16 32 
0.057475 2.446559215e-15 4.708844559e-16 27 
0.057525 2.351776975e-15 4.612502034e-16 26 
0.057575 2.075425179e-15 4.327974314e-16 23 
0.057625 2.710795559e-15 4.949700106e-16 30 
0.057675 2.778450386e-15 4.990839412e-16 31 
0.057725 1.884436708e-15 4.112564151e-16 21 
0.057775 2.415333793e-15 4.64866003e-16 27 
0.057825 2.688843359e-15 4.909659321e-16 30 
0.057875 2.221294173e-15 4.442948283e-16 25 
0.057925 2.758950219e-15 4.955481703e-16 31 
0.057975 1.591273557e-15 3.751123491e-16 18 
0.058025 1.85192464e-15 4.041600089e-16 21 
0.058075 2.555866161e-15 4.746578789e-16 29 
0.058125 2.469206394e-15 4.66658902e-16 28 
0.058175 2.630357743e-15 4.802629424e-16 30 
0.058225 2.372448606e-15 4.566001543e-16 27 
0.058275 2.185498494e-15 4.371116944e-16 25 
0.058325 1.928542723e-15 4.11209433e-16 22 
0.058375 2.09043206e-15 4.267318684e-16 24 
0.058425 2.697910089e-15 4.84579976e-16 31 
0.058475 2.17798151e-15 4.356137001e-16 25 
0.058525 2.334372978e-15 4.492726458e-16 27 
0.058575 2.073488746e-15 4.232643963e-16 24 
0.058625 1.637918693e-15 3.757721192e-16 19 
0.058675 2.413469148e-15 4.56117074e-16 28 
0.058725 1.892503698e-15 4.034985658e-16 22 
0.058775 2.317864002e-15 4.460889179e-16 27 
0.058825 2.39927339e-15 4.534385046e-16 28 
0.058875 1.968563276e-15 4.104863506e-16 23 
0.058925 2.047631772e-15 4.179843243e-16 24 
0.058975 1.536886528e-15 3.622649422e-16 18 
0.059025 2.555692469e-15 4.666223966e-16 30 
0.059075 2.297364412e-15 4.421403488e-16 27 
0.059125 1.616779717e-15 3.709276956e-16 19 
0.059175 1.698107275e-15 3.79717732e-16 20 
0.059225 2.115615259e-15 4.231315436e-16 25 
0.059275 2.199888596e-15 4.31444518e-16 26 
0.059325 1.938387144e-15 4.041925371e-16 23 
0.059375 2.778570367e-15 4.836909789e-16 33 
0.059425 2.435659505e-15 4.522997151e-16 29 
0.059475 2.181940077e-15 4.279218883e-16 26 
0.059525 1.850353018e-15 3.945056025e-16 22 
0.059575 1.761688207e-15 3.844377872e-16 21 
0.059625 2.424868196e-15 4.502916992e-16 29 
0.059675 2.420212147e-15 4.494312402e-16 29 
0.059725 2.588697429e-15 4.649511354e-16 31 
0.059775 1.916656611e-15 3.99655919e-16 23 
0.059825 2.744174594e-15 4.777066688e-16 33 
0.059875 1.829975572e-15 3.90158826e-16 22 
0.059925 2.324613223e-15 4.393170004e-16 28 
0.059975 2.980476645e-15 4.96749696e-16 36 
0.060025 3.063881879e-15 5.037083722e-16 37 
0.060075 2.232096364e-15 4.295718795e-16 27 
0.060125 2.063058228e-15 4.126163167e-16 25 
0.060175 1.48346706e-15 3.496588629e-16 18 
0.060225 2.22645302e-15 4.284857168e-16 27 
0.060275 2.385293406e-15 4.429404587e-16 29 
0.060325 2.794202179e-15 4.792065e-16 34 
0.060375 2.622984027e-15 4.636843266e-16 32 
0.060425 3.034637916e-15 4.988951204e-16 37 
0.060475 2.78523909e-15 4.776680119e-16 34 
0.060525 2.046631643e-15 4.093288635e-16 25 
0.060575 2.615437074e-15 4.623520236e-16 32 
0.060625 2.773687102e-15 4.756857102e-16 34 
0.060675 1.712666576e-15 3.737365872e-16 21 
0.060725 2.443907925e-15 4.461965397e-16 30 
0.060775 2.195362663e-15 4.224985637e-16 27 
0.060825 2.437429268e-15 4.450128885e-16 30 
0.060875 1.866950483e-15 3.892877857e-16 23 
0.060925 2.027672607e-15 4.055358404e-16 25 
0.060975 2.18847812e-15 4.211743744e-16 27 
0.061025 2.103347541e-15 4.12500959e-16 26 
0.061075 1.858586e-15 3.875423544e-16 23 
0.061125 2.34058765e-15 4.346365119e-16 29 
0.061175 1.372720685e-15 3.32934167e-16 17 
0.061225 2.25692657e-15 4.265195271e-16 28 
0.061275 2.174119663e-15 4.18409877e-16 27 
0.061325 2.414079113e-15 4.407488538e-16 30 
0.061375 1.929095605e-15 3.937752087e-16 24 
0.061425 2.248403309e-15 4.2490847e-16 28 
0.061475 1.765510799e-15 3.764084574e-16 22 
0.061525 2.405484155e-15 4.391795492e-16 30 
0.061575 1.842288289e-15 3.841438088e-16 23 
0.061625 2.322167012e-15 4.312159576e-16 29 
0.061675 2.559681829e-15 4.524923449e-16 32 
0.061725 1.518355178e-15 3.483346506e-16 19 
0.061775 1.677020045e-15 3.65955889e-16 21 
0.061825 2.712514064e-15 4.651924213e-16 34 
0.061875 1.674294239e-15 3.653610304e-16 21 
0.061925 1.991155461e-15 3.982311028e-16 25 
0.061975 1.591892954e-15 3.559581097e-16 20 
0.062025 2.306557689e-15 4.283170449e-16 29 
0.062075 1.351073478e-15 3.276834725e-16 17 
0.062125 1.98537347e-15 3.970747325e-16 25 
0.062175 2.618925269e-15 4.558964114e-16 33 
0.062225 2.061566674e-15 4.043065097e-16 26 
0.062275 2.297820172e-15 4.266945264e-16 29 
0.062325 1.425350265e-15 3.359583096e-16 18 
0.062375 2.057114775e-15 4.034334335e-16 26 
0.062425 2.847043228e-15 4.745073161e-16 36 
0.062475 1.975417115e-15 3.950834977e-16 25 
0.062525 1.499892546e-15 3.440989773e-16 19 
0.062575 2.446308176e-15 4.393700027e-16 31 
0.062625 2.601857466e-15 4.529253579e-16 33 
0.062675 2.442869587e-15 4.387524362e-16 31 
0.062725 2.51957718e-15 4.454026424e-16 32 
0.062775 2.833167091e-15 4.721947594e-16 36 
0.062825 1.808940766e-15 3.77190343e-16 23 
0.062875 2.672703113e-15 4.583649614e-16 34 
0.062925 2.277607095e-15 4.229411512e-16 29 
0.062975 1.883787796e-15 3.845267706e-16 24 
0.063025 2.667022602e-15 4.573908943e-16 34 
0.063075 3.136226491e-15 4.95881227e-16 40 
0.063125 2.821056126e-15 4.701762924e-16 36 
0.063175 2.427335733e-15 4.359626553e-16 31 
0.063225 2.191195251e-15 4.140972828e-16 28 
0.063275 1.876886796e-15 3.831181251e-16 24 
0.063325 2.734397201e-15 4.62197714e-16 35 
0.063375 1.796129561e-15 3.745190559e-16 23 
0.063425 2.810376167e-15 4.683964492e-16 36 
0.063475 2.340734023e-15 4.273580144e-16 30 
0.063525 2.572614183e-15 4.478350523e-16 33 
0.063575 2.49252539e-15 4.406208788e-16 32 
0.063625 1.168158622e-15 3.016174827e-16 15 
0.063675 1.789208522e-15 3.730760906e-16 23 
0.063725 1.398863672e-15 3.297156361e-16 18 
0.063775 2.098459092e-15 4.038490777e-16 27 
0.063825 2.717643255e-15 4.593658578e-16 35 
0.063875 1.785388156e-15 3.722795016e-16 23 
0.063925 1.473364651e-15 3.38013234e-16 19 
0.063975 2.248718899e-15 4.175768406e-16 29 
0.064025 2.402494341e-15 4.315010585e-16 31 
0.064075 1.935553567e-15 3.871109003e-16 25 
0.064125 2.940352815e-15 4.769887818e-16 38 
0.064175 2.47587395e-15 4.376773075e-16 32 
0.064225 2.47343421e-15 4.372459403e-16 32 
0.064275 1.931580679e-15 3.863164818e-16 25 
0.064325 1.853645442e-15 3.783740796e-16 24 
0.064375 3.240917075e-15 5.000847207e-16 42 
0.064425 2.699360087e-15 4.562754835e-16 35 
0.064475 2.388883743e-15 4.290565889e-16 31 
0.064525 2.61948473e-15 4.492383106e-16 34 
0.064575 2.386947391e-15 4.287086588e-16 31 
0.064625 2.53887149e-15 4.419612237e-16 33 
0.064675 2.460466582e-15 4.349534744e-16 32 
0.064725 2.535077613e-15 4.413007128e-16 33 
0.064775 1.920109795e-15 3.840222742e-16 25 
0.064825 2.533078398e-15 4.409526459e-16 33 
0.064875 2.225522668e-15 4.132694996e-16 29 
0.064925 2.52986231e-15 4.403929563e-16 33 
0.064975 2.221530287e-15 4.125280456e-16 29 
0.065025 1.76036467e-15 3.670617261e-16 23 
0.065075 1.836453018e-15 3.748646343e-16 24 
0.065125 2.678026686e-15 4.526694271e-16 35 
0.065175 2.369425955e-15 4.255616475e-16 31 
0.065225 2.44496281e-15 4.322126337e-16 32 
0.065275 2.748690367e-15 4.581152583e-16 36 
0.065325 2.670824832e-15 4.514519633e-16 35 
0.065375 2.211055157e-15 4.105829508e-16 29 
0.065425 2.133898358e-15 4.032690548e-16 28 
0.065475 1.826987193e-15 3.729324009e-16 24 
0.065525 2.512332496e-15 4.373410335e-16 33 
0.065575 1.977376418e-15 3.877955292e-16 26 
0.065625 3.040354753e-15 4.807224465e-16 40 
0.065675 2.203045186e-15 4.090952918e-16 29 
0.065725 1.822107502e-15 3.719362348e-16 24 
0.065775 1.896406789e-15 3.792814494e-16 25 
0.065825 2.50189764e-15 4.35524555e-16 33 
0.065875 1.591460944e-15 3.47285268e-16 21 
0.065925 2.877269894e-15 4.667548762e-16 38 
0.065975 1.89205084e-15 3.78410185e-16 25 
0.066025 1.739407789e-15 3.626916258e-16 23 
0.066075 2.493728659e-15 4.341024946e-16 33 
0.066125 2.416639216e-15 4.272055244e-16 32 
0.066175 2.867718143e-15 4.652053475e-16 38 
0.066225 2.413124375e-15 4.265841809e-16 32 
0.066275 2.336165163e-15 4.195876836e-16 31 
0.066325 2.409939487e-15 4.260211608e-16 32 
0.066375 2.03220948e-15 3.910989081e-16 27 
0.066425 2.782577152e-15 4.574529038e-16 37 
0.066475 2.254676495e-15 4.116457401e-16 30 
0.066525 2.327752104e-15 4.180766737e-16 31 
0.066575 2.101185079e-15 3.970867292e-16 28 
0.066625 2.249886969e-15 4.107713061e-16 30 
0.066675 1.948491865e-15 3.821307605e-16 26 
0.066725 2.920399273e-15 4.676382061e-16 39 
0.066775 2.244737798e-15 4.098312492e-16 30 
0.066825 2.168366313e-15 4.02655574e-16 29 
0.066875 2.689636017e-15 4.482728032e-16 36 
0.066925 2.239773505e-15 4.089249191e-16 30 
0.066975 2.61102854e-15 4.413445367e-16 35 
0.067025 2.459831741e-15 4.282018784e-16 33 
0.067075 2.309258114e-15 4.147551666e-16 31 
0.067125 1.78697974e-15 3.647658141e-16 24 
0.067175 2.156493082e-15 4.004508599e-16 29 
0.067225 1.932321452e-15 3.789597118e-16 26 
0.067275 2.228022256e-15 4.067795739e-16 30 
0.067325 2.523098853e-15 4.327082128e-16 34 
0.067375 2.224124134e-15 4.060680806e-16 30 
0.067425 2.593026739e-15 4.383018467e-16 35 
0.067475 2.36892847e-15 4.187716734e-16 32 
0.067525 2.144623469e-15 3.982471138e-16 29 
0.067575 2.807615395e-15 4.554560582e-16 38 
0.067625 2.435933444e-15 4.240421014e-16 33 
0.067675 3.393501171e-15 5.003455092e-16 46 
0.067725 2.50388619e-15 4.294137938e-16 34 
0.067775 1.989428742e-15 3.8286625e-16 27 
0.067825 2.059816302e-15 3.892694229e-16 28 
0.067875 2.350155137e-15 4.15454326e-16 32 
0.067925 2.057053372e-15 3.887472027e-16 28 
0.067975 2.347127879e-15 4.149191601e-16 32 
0.068025 2.784632145e-15 4.517282941e-16 38 
0.068075 2.050243301e-15 3.874609764e-16 28 
0.068125 1.903250327e-15 3.732596058e-16 26 
0.068175 2.412126161e-15 4.1989875e-16 33 
0.068225 1.606268489e-15 3.424585849e-16 22 
0.068275 2.846051296e-15 4.557344892e-16 39 
0.068325 2.624281168e-15 4.373822599e-16 36 
0.068375 2.039898992e-15 3.855066184e-16 28 
0.068425 2.911573695e-15 4.603616169e-16 40 
0.068475 1.963128146e-15 3.778060705e-16 27 
0.068525 1.742910971e-15 3.557714939e-16 24 
0.068575 1.597160643e-15 3.405179284e-16 22 
0.068625 2.102374044e-15 3.9040346e-16 29 
0.068675 2.462312665e-15 4.222855999e-16 34 
0.068725 1.447246142e-15 3.236151366e-16 20 
0.068775 2.313766054e-15 4.090218493e-16 32 
0.068825 2.528561331e-15 4.274086276e-16 35 
0.068875 2.59898034e-15 4.331668547e-16 36 
0.068925 2.020012341e-15 3.817492302e-16 28 
0.068975 2.015461241e-15 3.808881099e-16 28 
0.069025 2.442143976e-15 4.188276692e-16 34 
0.069075 2.155858016e-15 3.9360671e-16 30 
0.069125 1.722745988e-15 3.516560803e-16 24 
0.069175 2.221073808e-15 3.989199381e-16 31 
0.069225 2.717780131e-15 4.40887261e-16 38 
0.069275 2.928765687e-15 4.574020327e-16 41 
0.069325 2.714757553e-15 4.403954412e-16 38 
0.069375 2.709594046e-15 4.395577278e-16 38 
0.069425 2.283083468e-15 4.035999629e-16 32 
0.069475 2.418230419e-15 4.147269377e-16 34 
0.069525 2.49265518e-15 4.21341509e-16 35 
0.069575 1.780730834e-15 3.561486029e-16 25 
0.069625 2.060663159e-15 3.826604515e-16 29 
0.069675 3.261632453e-15 4.809095129e-16 46 
0.069725 1.911298653e-15 3.678325849e-16 27 
0.069775 2.687252206e-15 4.359345972e-16 38 
0.069825 2.049440754e-15 3.805775411e-16 29 
0.069875 2.472308158e-15 4.179024015e-16 35 
0.069925 2.038155117e-15 3.784809935e-16 29 
0.069975 2.254781089e-15 3.985988181e-16 32 
0.070025 2.67257774e-15 4.335595063e-16 38 
0.070075 2.107630377e-15 3.848054306e-16 30 
0.070125 1.962488495e-15 3.708852389e-16 28 
0.070175 2.172352366e-15 3.901744971e-16 31 
0.070225 2.450792321e-15 4.142662637e-16 35 
0.070275 2.097598401e-15 3.829753463e-16 30 
0.070325 2.163755377e-15 3.88632047e-16 31 
0.070375 2.372414102e-15 4.068751086e-16 34 
0.070425 2.158980029e-15 3.877713416e-16 31 
0.070475 2.083817931e-15 3.804571408e-16 30 
0.070525 2.360794441e-15 4.048820704e-16 34 
0.070575 2.494805747e-15 4.158086072e-16 36 
0.070625 2.359858622e-15 4.047197742e-16 34 
0.070675 2.08033556e-15 3.79824524e-16 30 
0.070725 1.935526911e-15 3.657901909e-16 28 
0.070775 2.689302391e-15 4.306456281e-16 39 
0.070825 2.895060183e-15 4.467282377e-16 42 
0.070875 2.128881389e-15 3.82372264e-16 31 
0.070925 2.540419164e-15 4.176531836e-16 37 
0.070975 2.330014389e-15 3.996096226e-16 34 
0.071025 2.533737855e-15 4.165589848e-16 37 
0.071075 2.118022836e-15 3.804197248e-16 31 
0.071125 1.915516823e-15 3.620071987e-16 28 
0.071175 1.704666707e-15 3.409417518e-16 25 
0.071225 1.567680115e-15 3.268940151e-16 23 
0.071275 1.568274254e-15 3.27016363e-16 23 
0.071325 2.036068269e-15 3.717478958e-16 30 
0.071375 1.966107256e-15 3.65116209e-16 29 
0.071425 2.984846833e-15 4.499949255e-16 44 
0.071475 1.828855376e-15 3.519798018e-16 27 
0.071525 2.094448808e-15 3.76190609e-16 31 
0.071575 3.038265471e-15 4.529367977e-16 45 
0.071625 2.418365826e-15 4.030785729e-16 36 
0.071675 2.153609138e-15 3.807318149e-16 32 
0.071725 2.684857282e-15 4.24533412e-16 40 
0.071775 2.618309269e-15 4.192773634e-16 39 
0.071825 3.015013429e-15 4.494700664e-16 45 
0.071875 1.605788503e-15 3.277970243e-16 24 
0.071925 2.603727085e-15 4.169458405e-16 39 
0.071975 2.063002131e-15 3.705369194e-16 31 
0.072025 1.667504493e-15 3.3351466e-16 25 
0.072075 2.061016076e-15 3.701835542e-16 31 
0.072125 2.191848976e-15 3.815702502e-16 33 
0.072175 2.317746828e-15 3.917872882e-16 35 
0.072225 2.116738302e-15 3.742047357e-16 32 
0.072275 2.775584919e-15 4.282962424e-16 42 
0.072325 1.583998859e-15 3.2334603e-16 24 
0.072375 2.114661911e-15 3.738426026e-16 32 
0.072425 2.231640474e-15 3.827459572e-16 34 
0.072475 2.101845445e-15 3.715826146e-16 32 
0.072525 1.96784483e-15 3.592930047e-16 30 
0.072575 2.157784925e-15 3.756437549e-16 33 
0.072625 1.761312274e-15 3.389852775e-16 27 
0.072675 2.21226365e-15 3.794267258e-16 34 
0.072725 2.275868408e-15 3.847225222e-16 35 
0.072775 1.82607604e-15 3.451127295e-16 28 
0.072825 1.686950043e-15 3.308599155e-16 26 
0.072875 2.591469826e-15 4.097634091e-16 40 
0.072925 2.130189379e-15 3.708449335e-16 33 
0.072975 2.459818206e-15 3.990548991e-16 38 
0.073025 2.004282902e-15 3.600076429e-16 31 
0.073075 2.255760051e-15 3.81320237e-16 35 
0.073125 3.015031931e-15 4.398169131e-16 47 
0.073175 2.377186354e-15 3.908353866e-16 37 
0.073225 2.503065841e-15 4.008403649e-16 39 
0.073275 1.92339594e-15 3.511828546e-16 30 
0.073325 2.419448376e-15 3.925173091e-16 38 
0.073375 2.67471096e-15 4.127527792e-16 42 
0.073425 2.096504059e-15 3.649803407e-16 33 
0.073475 2.40457533e-15 3.9010055e-16 38 
0.073525 2.024881244e-15 3.579903636e-16 32 
0.073575 2.081013887e-15 3.622933921e-16 33 
0.073625 2.082883061e-15 3.626110454e-16 33 
0.073675 1.896095846e-15 3.462088124e-16 30 
0.073725 2.06969966e-15 3.603139321e-16 33 
0.073775 2.447243339e-15 3.919073475e-16 39 
0.073825 2.50604713e-15 3.962715178e-16 40 
0.073875 2.000198728e-15 3.536161246e-16 32 
0.073925 2.056874796e-15 3.58092445e-16 33 
0.073975 1.677215866e-15 3.228060076e-16 27 
0.074025 2.235991335e-15 3.72696712e-16 36 
0.074075 3.105183705e-15 4.391893529e-16 50 
0.074125 2.165641808e-15 3.660894311e-16 35 
0.074175 2.533300638e-15 3.956619171e-16 41 
0.074225 1.670275473e-15 3.214676754e-16 27 
0.074275 2.336409812e-15 3.790575326e-16 38 
0.074325 1.532683285e-15 3.065662649e-16 25 
0.074375 1.844427199e-15 3.367741494e-16 30 
0.074425 1.468802981e-15 2.998403929e-16 24 
0.074475 1.713603789e-15 3.238577768e-16 28 
0.074525 2.328724265e-15 3.778097766e-16 38 
0.074575 1.642287104e-15 3.1608536e-16 27 
0.074625 2.18562771e-15 3.643295996e-16 36 
0.074675 2.006705971e-15 3.493607505e-16 33 
0.074725 2.053522809e-15 3.522074133e-16 34 
0.074775 1.991478777e-15 3.466999232e-16 33 
0.074825 2.0620473e-15 3.536796317e-16 34 
0.074875 2.232067529e-15 3.669847751e-16 37 
0.074925 2.223578699e-15 3.655929314e-16 37 
0.074975 1.971775748e-15 3.432827654e-16 33 
0.075025 1.919040881e-15 3.392808726e-16 32 
0.075075 2.083914197e-15 3.522893016e-16 35 
0.075125 2.080802381e-15 3.517623095e-16 35 
0.075175 1.905850456e-15 3.369596801e-16 32 
0.075225 2.497175631e-15 3.853703335e-16 42 
0.075275 1.893719223e-15 3.348019687e-16 32 
0.075325 2.013051204e-15 3.452958164e-16 34 
0.075375 1.835180947e-15 3.296549896e-16 31 
0.075425 1.410406703e-15 2.879344995e-16 24 
0.075475 2.288830132e-15 3.665464537e-16 39 
0.075525 1.821161287e-15 3.271308199e-16 31 
0.075575 2.166297508e-15 3.561739114e-16 37 
0.075625 2.281400779e-15 3.653563925e-16 39 
0.075675 2.157941815e-15 3.548223733e-16 37 
0.075725 2.081043033e-15 3.468768332e-16 36 
0.075775 2.141521366e-15 3.521138077e-16 37 
0.075825 1.614330992e-15 3.051291572e-16 28 
0.075875 1.610630261e-15 3.044328874e-16 28 
0.075925 1.727334537e-15 3.154219925e-16 30 
0.075975 2.119334287e-15 3.484751999e-16 37 
0.076025 1.784672415e-15 3.205645941e-16 31 
0.076075 2.294602003e-15 3.628555031e-16 40 
0.076125 1.200279011e-15 2.619530371e-16 21 
0.076175 2.332118558e-15 3.642723362e-16 41 
0.076225 1.583191094e-15 2.992519987e-16 28 
0.076275 1.763466034e-15 3.167846997e-16 31 
0.076325 1.58784139e-15 3.001178183e-16 28 
0.076375 1.679528329e-15 3.06672129e-16 30 
0.076425 1.465850008e-15 2.875192968e-16 26 
0.076475 1.245165473e-15 2.655383094e-16 22 
0.076525 2.301725674e-15 3.595402467e-16 41 
0.076575 1.443020349e-15 2.830748557e-16 26 
0.076625 1.39490769e-15 2.790413679e-16 25 
0.076675 1.566511531e-15 2.960842485e-16 28 
0.076725 1.439811546e-15 2.824553115e-16 26 
0.076775 1.670305084e-15 3.050128654e-16 30 
0.076825 2.375801416e-15 3.623754571e-16 43 
0.076875 1.487458476e-15 2.86346482e-16 27 
0.076925 1.597770044e-15 2.967660604e-16 29 
0.076975 2.464695061e-15 3.674800364e-16 45 
0.077025 2.033455349e-15 3.343780148e-16 37 
0.077075 2.026042768e-15 3.331542851e-16 37 
0.077125 1.816518468e-15 3.162788504e-16 33 
0.077175 1.859296201e-15 3.189338466e-16 34 
0.077225 1.999339113e-15 3.287499523e-16 37 
0.077275 1.618258429e-15 2.954888297e-16 30 
0.077325 1.950526944e-15 3.251404836e-16 36 
0.077375 1.84633037e-15 3.167075477e-16 34 
0.077425 1.827367743e-15 3.134504707e-16 34 
0.077475 1.188095834e-15 2.53337317e-16 22 
0.077525 2.142859633e-15 3.388973189e-16 40 
0.077575 2.189247835e-15 3.419739568e-16 41 
0.077625 1.749116082e-15 3.045362505e-16 33 
0.077675 2.125426694e-15 3.3614529e-16 40 
0.077725 1.764362758e-15 3.071809492e-16 33 
0.077775 1.639887917e-15 2.946087691e-16 31 
0.077825 1.361792223e-15 2.671253799e-16 26 
0.077875 1.535892013e-15 2.852647786e-16 29 
0.077925 1.211102833e-15 2.526146186e-16 23 
0.077975 2.321974082e-15 3.501407614e-16 44 
0.078025 1.982292121e-15 3.216174952e-16 38 
0.078075 2.097390248e-15 3.317165017e-16 40 
0.078125 2.027358466e-15 3.246965944e-16 39 
0.078175 1.971384947e-15 3.198695381e-16 38 
0.078225 2.387295808e-15 3.520724761e-16 46 
0.078275 2.275883542e-15 3.431794694e-16 44 
0.078325 1.699319722e-15 2.959026711e-16 33 
0.078375 2.162619388e-15 3.337785706e-16 42 
0.078425 1.745872203e-15 2.995000165e-16 34 
0.078475 1.746613913e-15 2.996137069e-16 34 
0.078525 1.992840187e-15 3.192048224e-16 39 
0.078575 2.136319923e-15 3.297262038e-16 42 
0.078625 2.23710981e-15 3.373581203e-16 44 
0.078675 1.668888399e-15 2.905787846e-16 33 
0.078725 2.434270362e-15 3.514331422e-16 48 
0.078775 2.077990662e-15 3.246108772e-16 41 
0.078825 2.010031033e-15 3.17924483e-16 40 
0.078875 1.703259446e-15 2.921807678e-16 34 
0.078925 1.345049216e-15 2.589162433e-16 27 
0.078975 2.754238707e-15 3.714466997e-16 55 
0.079025 1.840777238e-15 3.027067734e-16 37 
0.079075 1.880474635e-15 3.051454994e-16 38 
0.079125 1.521104124e-15 2.732837159e-16 31 
0.079175 1.775136857e-15 2.959359111e-16 36 
0.079225 2.074827142e-15 3.202467531e-16 42 
0.079275 1.435871031e-15 2.667016359e-16 29 
0.079325 1.720746445e-15 2.90916979e-16 35 
0.079375 1.769106975e-15 2.949315335e-16 36 
0.079425 1.663011616e-15 2.852697686e-16 34 
0.079475 1.907472717e-15 3.055154696e-16 39 
0.079525 1.687983205e-15 2.854166676e-16 35 
0.079575 2.413133509e-15 3.414062511e-16 50 
0.079625 1.533859942e-15 2.712290772e-16 32 
0.079675 1.870817144e-15 2.996397012e-16 39 
0.079725 1.972960759e-15 3.082164675e-16 41 
0.079775 1.818420014e-15 2.950728341e-16 38 
0.079825 1.725242794e-15 2.875974262e-16 36 
0.079875 1.813467565e-15 2.94272251e-16 38 
0.079925 1.67329714e-15 2.829087328e-16 35 
0.079975 1.805172973e-15 2.929042696e-16 38 
0.080025 1.517752774e-15 2.683889042e-16 32 
0.080075 1.834323168e-15 2.938234053e-16 39 
0.080125 1.499590592e-15 2.651533813e-16 32 
0.080175 1.400603207e-15 2.558115715e-16 30 
0.080225 1.732115672e-15 2.848381204e-16 37 
0.080275 1.16473077e-15 2.329979422e-16 25 
0.080325 1.760642484e-15 2.856764229e-16 38 
0.080375 1.772663385e-15 2.876407742e-16 38 
0.080425 2.035261095e-15 3.069394123e-16 44 
0.080475 1.701876143e-15 2.798724024e-16 37 
0.080525 1.283889193e-15 2.427019281e-16 28 
0.080575 2.008814881e-15 3.029281356e-16 44 
0.080625 2.486803285e-15 3.384978425e-16 54 
0.080675 1.633613052e-15 2.723402108e-16 36 
0.080725 1.638931527e-15 2.73214953e-16 36 
0.080775 1.805166603e-15 2.855111564e-16 40 
0.080825 1.682243045e-15 2.76647307e-16 37 
0.080875 1.217824601e-15 2.344284829e-16 27 
0.080925 1.711918559e-15 2.778116441e-16 38 
0.080975 1.753671802e-15 2.809237835e-16 39 
0.081025 2.018606916e-15 3.009831709e-16 45 
0.081075 1.657810394e-15 2.72626413e-16 37 
0.081125 1.471016053e-15 2.561823566e-16 33 
0.081175 1.771910591e-15 2.80238061e-16 40 
0.081225 1.898982202e-15 2.897011702e-16 43 
0.081275 2.040676527e-15 3.009502011e-16 46 
0.081325 1.108260725e-15 2.216993767e-16 25 
0.081375 1.229668539e-15 2.324428747e-16 28 
0.081425 2.098557519e-15 3.029818522e-16 48 
0.081475 1.916265871e-15 2.890408523e-16 44 
0.081525 1.748429811e-15 2.765628226e-16 40 
0.081575 1.483329483e-15 2.544757248e-16 34 
0.081625 1.472061801e-15 2.525233115e-16 34 
0.081675 1.348464254e-15 2.422493183e-16 31 
0.081725 1.416970366e-15 2.467509089e-16 33 
0.081775 2.106048259e-15 3.009416606e-16 49 
0.081825 1.956465707e-15 2.885589285e-16 46 
0.081875 1.792240499e-15 2.766279109e-16 42 
0.081925 1.795821592e-15 2.771761896e-16 42 
0.081975 1.500927901e-15 2.538071628e-16 35 
0.082025 1.740441881e-15 2.718839161e-16 41 
0.082075 1.608061003e-15 2.609523134e-16 38 
0.082125 2.025462234e-15 2.924345126e-16 48 
0.082175 1.307159179e-15 2.348438217e-16 31 
0.082225 1.598422947e-15 2.593855477e-16 38 
0.082275 1.492787908e-15 2.488929043e-16 36 
0.082325 1.46754046e-15 2.481396667e-16 35 
0.082375 1.506021853e-15 2.511068153e-16 36 
0.082425 1.500014827e-15 2.500628899e-16 36 
0.082475 1.328378729e-15 2.349052216e-16 32 
0.082525 1.401191392e-15 2.403973469e-16 34 
0.082575 1.358798086e-15 2.366163563e-16 33 
0.082625 1.40426783e-15 2.408941844e-16 34 
0.082675 1.307837876e-15 2.312857098e-16 32 
0.082725 1.710026126e-15 2.63956236e-16 42 
0.082775 1.264791663e-15 2.272461348e-16 31 
0.082825 1.508126614e-15 2.480414793e-16 37 
0.082875 1.50207029e-15 2.46989032e-16 37 
0.082925 1.707149638e-15 2.634967789e-16 42 
0.082975 1.825924896e-15 2.722988578e-16 45 
0.083025 1.32706354e-15 2.310692522e-16 33 
0.083075 1.358637151e-15 2.330750258e-16 34 
0.083125 1.560014364e-15 2.498976942e-16 39 
0.083175 1.27750434e-15 2.259022473e-16 32 
0.083225 1.632286612e-15 2.549935424e-16 41 
0.083275 1.279345505e-15 2.262362616e-16 32 
0.083325 1.631830862e-15 2.549364106e-16 41 
0.083375 1.459889486e-15 2.401010411e-16 37 
0.083425 1.61523083e-15 2.523458102e-16 41 
0.083475 1.612077459e-15 2.518512317e-16 41 
0.083525 1.446458429e-15 2.378752425e-16 37 
0.083575 1.525435893e-15 2.443341257e-16 39 
0.083625 1.568808762e-15 2.481006933e-16 40 
0.083675 1.134313095e-15 2.106845784e-16 29 
0.083725 1.793360329e-15 2.6448969e-16 46 
0.083775 1.669753663e-15 2.546913014e-16 43 
0.083825 1.711433214e-15 2.580914302e-16 44 
0.083875 1.234608389e-15 2.183205584e-16 32 
0.083925 9.999079716e-16 1.961719172e-16 26 
0.083975 1.219850071e-15 2.15711691e-16 32 
0.084025 1.143277962e-15 2.087811462e-16 30 
0.084075 1.072172049e-15 2.026687717e-16 28 
0.084125 1.260003468e-15 2.194089679e-16 33 
0.084175 1.372165403e-15 2.287574845e-16 36 
0.084225 1.709735021e-15 2.54935786e-16 45 
0.084275 1.661405412e-15 2.50538805e-16 44 
0.084325 1.213866791e-15 2.146522039e-16 32 
0.084375 1.400403631e-15 2.302900369e-16 37 
0.084425 1.390948566e-15 2.2870847e-16 37 
0.084475 1.125306964e-15 2.055150365e-16 30 
0.084525 1.757324174e-15 2.564122766e-16 47 
0.084575 1.192992203e-15 2.109381184e-16 32 
0.084625 1.032294948e-15 1.951228354e-16 28 
0.084675 1.258647714e-15 2.159335832e-16 34 
0.084725 1.489370024e-15 2.35559629e-16 40 
0.084775 1.184520663e-15 2.094581921e-16 32 
0.084825 1.691099425e-15 2.494147035e-16 46 
0.084875 1.355123793e-15 2.228421802e-16 37 
0.084925 1.538654167e-15 2.374675229e-16 42 
0.084975 1.315749396e-15 2.193560164e-16 36 
0.085025 1.648760976e-15 2.458315995e-16 45 
0.085075 1.201454076e-15 2.091915887e-16 33 
0.085125 1.41732227e-15 2.26998909e-16 39 
0.085175 1.382207522e-15 2.243028376e-16 38 
0.085225 1.490577006e-15 2.328475655e-16 41 
0.085275 1.295168964e-15 2.159055481e-16 36 
0.085325 1.367199785e-15 2.218278185e-16 38 
0.085375 1.507300933e-15 2.326275391e-16 42 
0.085425 1.535671512e-15 2.342568094e-16 43 
0.085475 1.465393993e-15 2.288986108e-16 41 
0.085525 1.355356772e-15 2.199135076e-16 38 
0.085575 1.324103245e-15 2.177329737e-16 37 
0.085625 1.385892334e-15 2.219645884e-16 39 
0.085675 9.164667082e-16 1.797775299e-16 26 
0.085725 1.301141316e-15 2.139441292e-16 37 
0.085775 1.590692124e-15 2.371608925e-16 45 
0.085825 1.626264657e-15 2.39819562e-16 46 
0.085875 1.577333712e-15 2.351801015e-16 45 
0.085925 1.762575883e-15 2.493179237e-16 50 
0.085975 1.619183228e-15 2.387820439e-16 46 
0.086025 1.438793558e-15 2.247579478e-16 41 
0.086075 1.575585611e-15 2.349224973e-16 45 
0.086125 1.225891951e-15 2.072553499e-16 35 
0.086175 1.394896922e-15 2.205900456e-16 40 
0.086225 1.039488054e-15 1.898206327e-16 30 
0.086275 1.143428287e-15 1.990716079e-16 33 
0.086325 9.025441576e-16 1.770429898e-16 26 
0.086375 1.205494596e-15 2.03796643e-16 35 
0.086425 1.232671119e-15 2.054737431e-16 36 
0.086475 1.377167963e-15 2.177984002e-16 40 
0.086525 1.201049955e-15 2.030460319e-16 35 
0.086575 1.407918697e-15 2.199158743e-16 41 
0.086625 1.16002289e-15 1.98978425e-16 34 
0.086675 1.32779539e-15 2.126530814e-16 39 
0.086725 1.087554671e-15 1.922776259e-16 32 
0.086775 1.555624031e-15 2.293902572e-16 46 
0.086825 1.590293856e-15 2.319967282e-16 47 
0.086875 9.833536111e-16 1.826338745e-16 29 
0.086925 9.452334539e-16 1.78658243e-16 28 
0.086975 1.315013626e-15 2.105962806e-16 39 
0.087025 1.584872788e-15 2.311971298e-16 47 
0.087075 1.513746456e-15 2.256882226e-16 45 
0.087125 1.040405823e-15 1.868839864e-16 31 
0.087175 1.270745639e-15 2.061659054e-16 38 
0.087225 1.436190934e-15 2.190439656e-16 43 
0.087275 9.656984067e-16 1.793461081e-16 29 
0.087325 1.229704354e-15 2.02184174e-16 37 
0.087375 1.228150022e-15 2.019265972e-16 37 
0.087425 1.127666664e-15 1.934174134e-16 34 
0.087475 1.2958841e-15 2.075297528e-16 39 
0.087525 1.287190564e-15 2.061370986e-16 39 
0.087575 1.355145803e-15 2.116695396e-16 41 
0.087625 1.350332903e-15 2.109127986e-16 41 
0.087675 1.449681875e-15 2.185692445e-16 44 
0.087725 9.534883475e-16 1.770883738e-16 29 
0.087775 9.827856932e-16 1.794518442e-16 30 
0.087825 1.741542239e-15 2.39243205e-16 53 
0.087875 1.045760298e-15 1.848809898e-16 32 
0.087925 1.108670599e-15 1.901519568e-16 34 
0.087975 1.730810775e-15 2.377723818e-16 53 
0.088025 1.436210881e-15 2.165437231e-16 44 
0.088075 1.29920693e-15 2.054435297e-16 40 
0.088125 1.101634339e-15 1.889472304e-16 34 
0.088175 1.263942231e-15 2.024096191e-16 39 
0.088225 1.100894715e-15 1.888233152e-16 34 
0.088275 8.714991757e-16 1.677414039e-16 27 
0.088325 1.356303645e-15 2.092963508e-16 42 
0.088375 1.445861903e-15 2.155469003e-16 45 
0.088425 1.124612423e-15 1.901068368e-16 35 
0.088475 1.505138403e-15 2.195653141e-16 47 
0.088525 1.406747509e-15 2.120885876e-16 44 
0.088575 1.631551884e-15 2.284794559e-16 51 
0.088625 1.151328491e-15 1.918977868e-16 36 
0.088675 1.304348768e-15 2.037196653e-16 41 
0.088725 1.559862593e-15 2.228495933e-16 49 
0.088775 1.047337217e-15 1.823289769e-16 33 
0.088825 1.397679491e-15 2.107174189e-16 44 
0.088875 1.083591954e-15 1.858412875e-16 34 
0.088925 1.552189904e-15 2.217535902e-16 49 
0.088975 1.203569032e-15 1.952568073e-16 38 
0.089025 1.167902713e-15 1.920118075e-16 37 
0.089075 1.35241048e-15 2.062507752e-16 43 
0.089125 1.069038681e-15 1.833444489e-16 34 
0.089175 1.039912022e-15 1.810328472e-16 33 
0.089225 1.006932595e-15 1.780136789e-16 32 
0.089275 1.5092342e-15 2.178482502e-16 48 
0.089325 1.221942891e-15 1.956767957e-16 39 
0.089375 1.130014766e-15 1.883447822e-16 36 
0.089425 1.501775678e-15 2.167732972e-16 48 
0.089475 9.706845743e-16 1.743497345e-16 31 
0.089525 9.986461377e-16 1.765523538e-16 32 
0.089575 1.186010761e-15 1.924041572e-16 38 
0.089625 7.469072702e-16 1.52468558e-16 24 
0.089675 1.333487019e-15 2.033627671e-16 43 
0.089725 1.71177868e-15 2.308259549e-16 55 
0.089775 9.597945252e-16 1.723886223e-16 31 
0.089825 1.420704579e-15 2.094775569e-16 46 
0.089875 1.020653131e-15 1.776824147e-16 33 
0.089925 1.112042472e-15 1.853485578e-16 36 
0.089975 1.201686936e-15 1.924286121e-16 39 
0.090025 1.143808166e-15 1.880488964e-16 37 
0.090075 1.294109271e-15 1.996907971e-16 42 
0.090125 1.414650494e-15 2.085855215e-16 46 
0.090175 1.533706712e-15 2.169044195e-16 50 
0.090225 1.134876901e-15 1.865785555e-16 37 
0.090275 1.318619684e-15 2.010950993e-16 43 
0.090325 1.348563908e-15 2.033113909e-16 44 
0.090375 1.255636389e-15 1.961048343e-16 41 
0.090425 1.619215086e-15 2.224214911e-16 53 
0.090475 1.375058631e-15 2.049866131e-16 45 
0.090525 1.066306031e-15 1.802435369e-16 35 
0.090575 1.735033103e-15 2.298167999e-16 57 
0.090625 1.30939109e-15 1.996860269e-16 43 
0.090675 9.709285568e-16 1.716415713e-16 32 
0.090725 1.517660957e-15 2.146347977e-16 50 
0.090775 1.33516039e-15 2.012879881e-16 44 
0.090825 1.182255701e-15 1.8931687e-16 39 
0.090875 1.268859329e-15 1.957937919e-16 42 
0.090925 1.541543665e-15 2.15865046e-16 51 
0.090975 1.572744035e-15 2.181058009e-16 52 
0.091025 1.420563122e-15 2.072163786e-16 47 
0.091075 1.327889234e-15 2.001910101e-16 44 
0.091125 1.146041089e-15 1.859174664e-16 38 
0.091175 1.113614522e-15 1.83081168e-16 37 
0.091225 1.143072627e-15 1.854350531e-16 38 
0.091275 1.409104481e-15 2.055420928e-16 47 
0.091325 1.109963407e-15 1.824800349e-16 37 
0.091375 1.257299873e-15 1.940077997e-16 42 
0.091425 1.167069532e-15 1.868849392e-16 39 
0.091475 1.584652597e-15 2.176729283e-16 53 
0.091525 1.312361907e-15 1.978491164e-16 44 
0.091575 1.282871492e-15 1.956394885e-16 43 
0.091625 1.340445474e-15 1.998255833e-16 45 
0.091675 1.190991153e-15 1.883151198e-16 40 
0.091725 1.279689312e-15 1.951540187e-16 43 
0.091775 1.15883081e-15 1.855648158e-16 39 
0.091825 1.634960406e-15 2.204624768e-16 55 
0.091875 1.396004473e-15 2.036318668e-16 47 
0.091925 1.483017562e-15 2.097335986e-16 50 
0.091975 1.126162086e-15 1.82690446e-16 38 
0.092025 1.509522193e-15 2.113784892e-16 51 
0.092075 1.124700663e-15 1.824557035e-16 38 
0.092125 1.361293669e-15 2.007150505e-16 46 
0.092175 1.239780693e-15 1.913064637e-16 42 
0.092225 1.680141052e-15 2.225445778e-16 57 
0.092275 1.472232945e-15 2.082088609e-16 50 
0.092325 1.738162562e-15 2.262930932e-16 59 
0.092375 1.059733939e-15 1.766261476e-16 36 
0.092425 1.292087631e-15 1.947938001e-16 44 
0.092475 1.261785788e-15 1.924243921e-16 43 
0.092525 1.46649563e-15 2.073969696e-16 50 
0.092575 1.408010844e-15 2.032324854e-16 48 
0.092625 9.368346905e-16 1.656132496e-16 32 
0.092675 1.144284073e-15 1.832356041e-16 39 
0.092725 1.023512671e-15 1.730080609e-16 35 
0.092775 1.284650987e-15 1.936706237e-16 44 
0.092825 1.049796058e-15 1.749685945e-16 36 
0.092875 1.225539384e-15 1.891087715e-16 42 
0.092925 1.137001387e-15 1.820687057e-16 39 
0.092975 1.164428477e-15 1.841154442e-16 40 
0.093025 1.30870185e-15 1.950928125e-16 45 
0.093075 1.309400616e-15 1.95196846e-16 45 
0.093125 1.451232402e-15 2.052392976e-16 50 
0.093175 1.334277826e-15 1.967313598e-16 46 
0.093225 1.276102751e-15 1.923825726e-16 44 
0.093275 1.014753705e-15 1.715282231e-16 35 
0.093325 1.155323162e-15 1.826753838e-16 40 
0.093375 1.185902352e-15 1.852109859e-16 41 
0.093425 1.212572233e-15 1.871075335e-16 42 
0.093475 1.096811512e-15 1.77928821e-16 38 
0.093525 1.326828857e-15 1.956341405e-16 46 
0.093575 1.121844933e-15 1.796412471e-16 39 
0.093625 1.181432714e-15 1.845116732e-16 41 
0.093675 1.210510478e-15 1.867894709e-16 42 
0.093725 1.263291283e-15 1.904516676e-16 44 
0.093775 1.089617052e-15 1.767617456e-16 38 
0.093825 1.317659389e-15 1.942826866e-16 46 
0.093875 1.289997509e-15 1.923052492e-16 45 
0.093925 1.259748075e-15 1.899175605e-16 44 
0.093975 9.432764204e-16 1.642062402e-16 33 
0.094025 1.084819841e-15 1.759833204e-16 38 
0.094075 1.200021447e-15 1.851704718e-16 42 
0.094125 1.513388317e-15 2.078843584e-16 53 
0.094175 1.59738617e-15 2.134650961e-16 56 
0.094225 8.544468723e-16 1.560037487e-16 30 
0.094275 1.139101569e-15 1.801115361e-16 40 
0.094325 1.279158096e-15 1.90688245e-16 45 
0.094375 1.277738089e-15 1.904771307e-16 45 
0.094425 1.361447049e-15 1.965131867e-16 48 
0.094475 1.473721187e-15 2.043734299e-16 52 
0.094525 1.018501998e-15 1.697542057e-16 36 
0.094575 1.104048445e-15 1.767932315e-16 39 
0.094625 8.488014857e-16 1.549735613e-16 30 
0.094675 1.326899745e-15 1.935530474e-16 47 
0.094725 1.440169198e-15 2.016687182e-16 51 
0.094775 1.49546626e-15 2.054228331e-16 53 
0.094825 1.210471208e-15 1.846008902e-16 43 
0.094875 8.705266818e-16 1.563556771e-16 31 
0.094925 1.179872161e-15 1.820611479e-16 42 
0.094975 9.829939413e-16 1.661591505e-16 35 
0.095025 1.206318743e-15 1.839652372e-16 43 
0.095075 1.231048228e-15 1.855944835e-16 44 
0.095125 1.342921158e-15 1.938400146e-16 48 
0.095175 1.368868858e-15 1.955581713e-16 49 
0.095225 1.086167835e-15 1.739304723e-16 39 
0.095275 1.085694138e-15 1.738538623e-16 39 
0.095325 1.113680021e-15 1.760937883e-16 40 
0.095375 1.251419566e-15 1.86557344e-16 45 
0.095425 1.19838341e-15 1.827553853e-16 43 
0.095475 1.029809914e-15 1.693049119e-16 37 
0.095525 1.111484217e-15 1.7574789e-16 40 
0.095575 1.249484928e-15 1.862662174e-16 45 
0.095625 1.274605977e-15 1.879367043e-16 46 
0.095675 1.521929877e-15 2.052222824e-16 55 
0.095725 1.07751909e-15 1.725457735e-16 39 
0.095775 8.847874651e-16 1.564143839e-16 32 
0.095825 1.046678002e-15 1.698015868e-16 38 
0.095875 1.182265813e-15 1.80298589e-16 43 
0.095925 1.404446802e-15 1.966686214e-16 51 
0.095975 1.37578785e-15 1.945743493e-16 50 
0.096025 1.018498825e-15 1.674468387e-16 37 
0.096075 1.290476968e-15 1.882444287e-16 47 
0.096125 1.012068212e-15 1.663876925e-16 37 
0.096175 1.289178236e-15 1.880538467e-16 47 
0.096225 9.880205719e-16 1.646745947e-16 36 
0.096275 1.011704768e-15 1.663299488e-16 37 
0.096325 1.066752738e-15 1.708258963e-16 39 
0.096375 1.336672738e-15 1.909626889e-16 49 
0.096425 1.500794354e-15 2.02373896e-16 55 
0.096475 8.409584807e-16 1.510469488e-16 31 
0.096525 1.438258426e-15 1.975673181e-16 53 
0.096575 1.27809005e-15 1.864369881e-16 47 
0.096625 1.03135508e-15 1.673144651e-16 38 
0.096675 1.163385554e-15 1.774241952e-16 43 
0.096725 1.432887286e-15 1.968313201e-16 53 
0.096775 1.027561434e-15 1.666997043e-16 38 
0.096825 1.108219678e-15 1.730825445e-16 41 
0.096875 9.696024356e-16 1.616107499e-16 36 
0.096925 8.870312408e-16 1.544219683e-16 33 
0.096975 1.31946009e-15 1.885042717e-16 49 
0.097025 1.101148442e-15 1.719798098e-16 41 
0.097075 1.207497853e-15 1.80013912e-16 45 
0.097125 1.04459121e-15 1.6727967e-16 39 
0.097175 1.099483805e-15 1.717224443e-16 41 
0.097225 1.337455729e-15 1.891559014e-16 50 
0.097275 1.097707773e-15 1.714423823e-16 41 
0.097325 1.283066509e-15 1.852071972e-16 48 
0.097375 1.090118946e-15 1.702589543e-16 41 
0.097425 1.172940344e-15 1.76836534e-16 44 
0.097475 1.16926845e-15 1.76287144e-16 44 
0.097525 1.407852899e-15 1.933960715e-16 53 
0.097575 7.688920345e-16 1.427939443e-16 29 
0.097625 1.113721937e-15 1.718626712e-16 42 
0.097675 1.347315037e-15 1.886759759e-16 51 
0.097725 8.700371178e-16 1.514679383e-16 33 
0.097775 1.372477404e-15 1.903427614e-16 52 
0.097825 1.265077392e-15 1.826095234e-16 48 
0.097875 8.399264309e-16 1.484886966e-16 32 
0.097925 1.366774645e-15 1.895569482e-16 52 
0.097975 1.022045199e-15 1.63668468e-16 39 
0.098025 9.6966745e-16 1.594287608e-16 37 
0.098075 1.02173902e-15 1.636231686e-16 39 
0.098125 8.60104098e-16 1.497353738e-16 33 
0.098175 1.228722032e-15 1.792439773e-16 47 
0.098225 9.661890758e-16 1.588557301e-16 37 
0.098275 1.174917518e-15 1.75160311e-16 45 
0.098325 9.365627846e-16 1.561032753e-16 36 
0.098375 1.010957033e-15 1.618929177e-16 39 
0.098425 9.603108264e-16 1.578835174e-16 37 
0.098475 1.113474596e-15 1.698176256e-16 43 
0.098525 1.297808443e-15 1.83551639e-16 50 
0.098575 1.085647524e-15 1.675306373e-16 42 
0.098625 1.211562856e-15 1.767448164e-16 47 
0.098675 9.286522667e-16 1.547917391e-16 36 
0.098725 1.287694218e-15 1.821178493e-16 50 
0.098775 1.209437107e-15 1.764293259e-16 47 
0.098825 1.33670148e-15 1.853781559e-16 52 
0.098875 1.079512466e-15 1.665834108e-16 42 
0.098925 1.100364688e-15 1.678154708e-16 43 
0.098975 9.464528097e-16 1.556077079e-16 37 
0.099025 1.044026667e-15 1.630643949e-16 41 
0.099075 1.228198238e-15 1.772865022e-16 48 
0.099125 1.043834194e-15 1.630370271e-16 41 
0.099175 1.044078512e-15 1.630709303e-16 41 
0.099225 5.878342112e-16 1.22579285e-16 23 
0.099275 7.89383215e-16 1.417901492e-16 31 
0.099325 9.660008127e-16 1.567178758e-16 38 
0.099375 8.124398143e-16 1.436310781e-16 32 
0.099425 9.891132681e-16 1.583973759e-16 39 
0.099475 7.854386992e-16 1.410771369e-16 31 
0.099525 7.083525284e-16 1.338736314e-16 28 
0.099575 7.323449311e-16 1.360006774e-16 29 
0.099625 8.071356878e-16 1.426902572e-16 32 
0.099675 6.077712564e-16 1.240662972e-16 24 
0.099725 6.294054619e-16 1.258883102e-16 25 
0.099775 6.80638599e-16 1.309967768e-16 27 
0.099825 6.546333892e-16 1.283911564e-16 26 
0.099875 4.277696961e-16 1.037528004e-16 17 
0.099925 6.778533936e-16 1.304635191e-16 27 
0.099975 6.042289917e-16 1.233413107e-16 24 
