# Format: McCode with text headers
# URL: http://www.mccode.org
# Creator: McXtrace 1.7 - Jan. 23, 2022
# Instrument: templateSasView.instr
# Ncount: 1000000
# Trace: no
# Gravitation: no
# Seed: 1647939208
# Directory: /tmp/templateSasView_20220225_150208
# Param: lambda=1.54
# Param: dlambda=0.05
# Date: Fri Feb 25 15:02:11 2022 (1645797731)
# type: array_1d(1000)
# Source: templateSasView (templateSasView.instr)
# component: QMonitor
# position: 0 0 9.22
# title: QMonitor - Distribution in q (Radially averaged)
# Ncount: 1000000
# filename: QDetector.dat
# statistics: X0=0.0263323; dX=0.0287044;
# signal: Min=0; Max=3.18647; Mean=0.0909088;
# values: 90.9088 5.62705 113980
# xvar: q
# yvar: (I,I_err)
# xlabel: q [1 / AA]
# ylabel: I(q)
# xlimits: 0 0.402484
# variables: q I I_err N
0.0002012418923 0 0 0 
0.000603725677 0 0 0 
0.001006209462 0 0 0 
0.001408693246 0 0 0 
0.001811177031 1.986710139 1.986710139 1 
0.002213660816 3.186465261 2.254888844 2 
0.0026161446 2.703397605 1.917641997 2 
0.003018628385 1.247409101 1.247409101 1 
0.00342111217 0 0 0 
0.003823595954 0.9833586252 0.9833586252 1 
0.004226079739 1.750483888 1.237882147 2 
0.004628563524 0.7208279204 0.7208279204 1 
0.005031047308 2.157281958 1.246584511 3 
0.005433531093 1.140630666 0.813107541 2 
0.005836014878 1.359732434 0.7987594487 3 
0.006238498662 2.885013617 1.200090094 6 
0.006640982447 0.3435435574 0.3435435574 1 
0.007043466231 0.7525974295 0.533823986 2 
0.007445950016 1.108162753 0.6472760812 3 
0.007848433801 2.101400464 0.8875398448 6 
0.008250917585 0.9374406788 0.5767477421 3 
0.00865340137 1.309155033 0.6170993162 5 
0.009055885155 1.254115765 0.6576074521 4 
0.009458368939 1.90954031 0.8125933863 6 
0.009860852724 1.842013852 0.727817041 7 
0.01026333651 1.582133034 0.67820802 6 
0.01066582029 2.060676926 0.7509057126 9 
0.01106830408 0.8050637367 0.3986289908 6 
0.01147078786 1.016787821 0.4634468427 6 
0.01187327165 0.8945521647 0.4836272657 5 
0.01227575543 1.790612784 0.5883578531 12 
0.01267823922 0.8690656811 0.3944550791 8 
0.013080723 1.228343812 0.52348199 8 
0.01348320679 0.8269128117 0.4071006189 7 
0.01388569057 1.01078299 0.4940879043 6 
0.01428817436 1.204412978 0.479983069 8 
0.01469065814 0.3703908714 0.2674318169 4 
0.01509314192 0.9736959917 0.4079950481 10 
0.01549562571 1.037696105 0.3915175637 13 
0.01589810949 0.1718694258 0.1069107915 7 
0.01630059328 0.3043092459 0.1517981519 8 
0.01670307706 1.14241305 0.4639287577 11 
0.01710556085 0.3736614978 0.2382211724 8 
0.01750804463 0.7292239923 0.3474658352 10 
0.01791052842 0.2323006187 0.1166268812 10 
0.0183130122 0.00613697932 0.006648579314 4 
0.01871549599 1.073630096 0.3991508694 12 
0.01911797977 0.617963079 0.3057330026 10 
0.01952046356 0.3533390295 0.2459683076 6 
0.01992294734 0.3849718122 0.215535543 12 
0.02032543113 0.3366689513 0.2116640571 9 
0.02072791491 0.4939571035 0.2758649822 12 
0.02113039869 0.256983757 0.1590929325 8 
0.02153288248 0.7456910923 0.3383953062 11 
0.02193536626 0.6026535327 0.2700586709 17 
0.02233785005 0.2446035888 0.1441445188 12 
0.02274033383 0.4682516097 0.2343819032 14 
0.02314281762 0.5541415317 0.2672805177 10 
0.0235453014 0.2096387171 0.1425843722 13 
0.02394778519 0.960069469 0.3446869252 16 
0.02435026897 0.5068007477 0.2345267273 11 
0.02475275276 0.4970504142 0.2440534209 11 
0.02515523654 0.77147317 0.2916128177 16 
0.02555772033 0.4286115141 0.2019385041 18 
0.02596020411 0.4432867658 0.1827468768 19 
0.02636268789 0.2665626124 0.1573731275 9 
0.02676517168 0.266973804 0.1641430321 11 
0.02716765546 0.3547019483 0.17711649 13 
0.02757013925 0.2567912056 0.1294983837 14 
0.02797262303 0.4161228477 0.1898531082 16 
0.02837510682 0.4157627661 0.187124811 18 
0.0287775906 0.3173174382 0.1555313352 11 
0.02918007439 0.2585122986 0.1423477581 17 
0.02958255817 0.5730836387 0.2395766819 19 
0.02998504196 0.358062245 0.1933575517 11 
0.03038752574 0.3753909263 0.1876942718 19 
0.03079000953 0.4493712251 0.1942121712 15 
0.03119249331 0.4441726762 0.1836131172 24 
0.0315949771 0.4921544755 0.2065948239 16 
0.03199746088 0.2698611499 0.1199701628 18 
0.03239994466 0.3671443756 0.1768500188 14 
0.03280242845 0.292967263 0.1375798388 20 
0.03320491223 0.09831417172 0.0530996602 18 
0.03360739602 0.340940396 0.1385531498 28 
0.0340098798 0.3193022709 0.1728115997 15 
0.03441236359 0.1708121245 0.1055100905 24 
0.03481484737 0.2526895687 0.1186982722 31 
0.03521733116 0.148111721 0.09897648307 12 
0.03561981494 0.2151758071 0.0876987199 20 
0.03602229873 0.4435080577 0.1845656067 23 
0.03642478251 0.3304295073 0.156068312 22 
0.0368272663 0.2138124331 0.1139005813 16 
0.03722975008 0.244138448 0.1292658508 25 
0.03763223387 0.1101593061 0.05077163914 21 
0.03803471765 0.241135997 0.1092562333 25 
0.03843720143 0.156143624 0.08688392665 20 
0.03883968522 0.3745069982 0.1541911554 21 
0.039242169 0.4414620527 0.1732318855 25 
0.03964465279 0.2267809485 0.1200250979 27 
0.04004713657 0.2669325618 0.1125529234 23 
0.04044962036 0.3262658288 0.1287011213 23 
0.04085210414 0.2149267896 0.101776283 20 
0.04125458793 0.2471883063 0.1139078412 22 
0.04165707171 0.3880841795 0.151761753 23 
0.0420595555 0.1495352936 0.08488070651 22 
0.04246203928 0.1643192752 0.08523113385 19 
0.04286452307 0.3101708313 0.1383956566 26 
0.04326700685 0.3655751856 0.1417279283 27 
0.04366949064 0.268452964 0.1073333606 30 
0.04407197442 0.160569354 0.08540806246 17 
0.0444744582 0.03567188571 0.01643693913 19 
0.04487694199 0.3108625898 0.1313034453 20 
0.04527942577 0.1404775797 0.06767589668 27 
0.04568190956 0.3237097497 0.1216025676 30 
0.04608439334 0.1479700786 0.07689661579 27 
0.04648687713 0.1512263149 0.07369798339 26 
0.04688936091 0.2193624951 0.09983654161 24 
0.0472918447 0.1903233735 0.09525316326 25 
0.04769432848 0.1976425807 0.09587004709 34 
0.04809681227 0.09077203767 0.06338413917 24 
0.04849929605 0.2505048224 0.1020481314 32 
0.04890177984 0.176788815 0.07885960373 29 
0.04930426362 0.07732030813 0.05937636136 24 
0.0497067474 0.06194163231 0.04087068209 19 
0.05010923119 0.2840058636 0.1067874037 28 
0.05051171497 0.06977926211 0.05639003664 16 
0.05091419876 0.0769908593 0.039610977 27 
0.05131668254 0.200089822 0.09686747139 30 
0.05171916633 0.3144404649 0.1130494343 32 
0.05212165011 0.1527225526 0.08298229193 22 
0.0525241339 0.3141133347 0.115676769 38 
0.05292661768 0.2170222063 0.09083572054 27 
0.05332910147 0.3029625954 0.1052085059 26 
0.05373158525 0.1481487192 0.07650893924 29 
0.05413406904 0.1919297887 0.08829626999 30 
0.05453655282 0.1148684211 0.05800636828 29 
0.05493903661 0.1717854116 0.07977183861 30 
0.05534152039 0.08379868088 0.04218184108 26 
0.05574400417 0.0763174008 0.04056516622 24 
0.05614648796 0.1487037827 0.06462045054 22 
0.05654897174 0.06798644027 0.033537302 31 
0.05695145553 0.1923092094 0.08253552656 38 
0.05735393931 0.3272532842 0.1065940705 38 
0.0577564231 0.07721674379 0.04324328279 25 
0.05815890688 0.1855449395 0.07112511634 34 
0.05856139067 0.2238079112 0.08215484022 35 
0.05896387445 0.1152467515 0.06349507176 33 
0.05936635824 0.1216577738 0.06116947993 31 
0.05976884202 0.1049989606 0.05154542799 32 
0.06017132581 0.0938558199 0.04897821738 28 
0.06057380959 0.08916636803 0.04314713058 36 
0.06097629338 0.2151772625 0.08298229786 41 
0.06137877716 0.1559700756 0.06648963857 37 
0.06178126094 0.1976329997 0.07445838083 42 
0.06218374473 0.08586620401 0.04605243724 20 
0.06258622851 0.2341433309 0.08632613859 36 
0.0629887123 0.204743676 0.07439903473 41 
0.06339119608 0.08266628998 0.04010519581 39 
0.06379367987 0.1712051608 0.0685216878 43 
0.06419616365 0.08133984439 0.03824070875 29 
0.06459864744 0.09922466913 0.05168177335 36 
0.06500113122 0.1222282153 0.06005913321 35 
0.06540361501 0.08910206486 0.04920806969 37 
0.06580609879 0.07212675394 0.04372534857 26 
0.06620858258 0.2101877256 0.0755057154 35 
0.06661106636 0.1588272801 0.06261273344 37 
0.06701355015 0.04955072815 0.02583344314 40 
0.06741603393 0.1586479668 0.06281078669 43 
0.06781851771 0.0406212403 0.02158579465 40 
0.0682210015 0.1054972263 0.04820356748 44 
0.06862348528 0.09726011103 0.0385886935 37 
0.06902596907 0.2828555917 0.08998355162 43 
0.06942845285 0.08532741714 0.04244694562 37 
0.06983093664 0.06252955325 0.03362372705 40 
0.07023342042 0.1076583949 0.04579908079 44 
0.07063590421 0.1087496157 0.05184181161 30 
0.07103838799 0.05528335842 0.03362851033 40 
0.07144087178 0.1281626939 0.05460357029 37 
0.07184335556 0.09639551532 0.04783026456 43 
0.07224583935 0.03883604225 0.02789500082 24 
0.07264832313 0.1159387529 0.04841984467 43 
0.07305080691 0.07502854932 0.0411377431 42 
0.0734532907 0.06835715555 0.03282438367 42 
0.07385577448 0.03574138013 0.01799551952 44 
0.07425825827 0.05768317834 0.03185576128 36 
0.07466074205 0.06437647049 0.03231665726 38 
0.07506322584 0.05856053569 0.03654769317 41 
0.07546570962 0.1092185333 0.04245327662 36 
0.07586819341 0.09576471213 0.04218096109 45 
0.07627067719 0.05065455565 0.02158825434 48 
0.07667316098 0.1075819892 0.04128283474 45 
0.07707564476 0.08032043639 0.03891331387 30 
0.07747812855 0.04569159465 0.0259655837 37 
0.07788061233 0.1105523375 0.04361030836 49 
0.07828309612 0.09039041123 0.03480638546 46 
0.0786855799 0.1170122767 0.04458348411 52 
0.07908806368 0.07506538205 0.03224227173 47 
0.07949054747 0.122277521 0.04768557893 43 
0.07989303125 0.1094272865 0.044191718 49 
0.08029551504 0.0280213597 0.018965816 41 
0.08069799882 0.02994696953 0.01840743207 41 
0.08110048261 0.03071397103 0.01578153043 36 
0.08150296639 0.08619787878 0.03824391219 40 
0.08190545018 0.04978140012 0.02240100245 55 
0.08230793396 0.08839811948 0.03492731873 50 
0.08271041775 0.06097949667 0.02406207765 56 
0.08311290153 0.1232419043 0.04350106866 54 
0.08351538532 0.01845400603 0.007771369753 54 
0.0839178691 0.1698371428 0.04934970408 66 
0.08432035289 0.04050760085 0.02201855097 42 
0.08472283667 0.03493360107 0.02061967911 59 
0.08512532045 0.09262533668 0.03944265032 54 
0.08552780424 0.1174159084 0.04293967069 56 
0.08593028802 0.05361367275 0.0279567903 35 
0.08633277181 0.09375801287 0.03561832856 57 
0.08673525559 0.05635791155 0.02591777404 54 
0.08713773938 0.08156124765 0.0331121684 67 
0.08754022316 0.06535674773 0.0298068905 41 
0.08794270695 0.04584282027 0.02070691945 58 
0.08834519073 0.06448021059 0.02607506348 69 
0.08874767452 0.06086434784 0.02843240421 56 
0.0891501583 0.02259962828 0.01478398352 49 
0.08955264209 0.0529127318 0.02620967602 56 
0.08995512587 0.08890945617 0.0314488834 45 
0.09035760966 0.03521414995 0.02116689157 53 
0.09076009344 0.04985752857 0.02084219994 52 
0.09116257722 0.0836468871 0.03303092983 43 
0.09156506101 0.04072378277 0.01940702842 58 
0.09196754479 0.0575105062 0.02875943038 51 
0.09237002858 0.08494590754 0.03246411927 64 
0.09277251236 0.07989959004 0.03108906484 48 
0.09317499615 0.06672320659 0.02760281286 52 
0.09357747993 0.05706338057 0.02602631369 60 
0.09397996372 0.04938739747 0.02241248336 57 
0.0943824475 0.07262681439 0.02800766992 54 
0.09478493129 0.03954280134 0.01910798877 56 
0.09518741507 0.03750971079 0.01306438934 56 
0.09558989886 0.0205344158 0.01097965177 39 
0.09599238264 0.05872166324 0.02280001508 45 
0.09639486642 0.03492790544 0.01511152382 45 
0.09679735021 0.01953789615 0.01064490183 49 
0.09719983399 0.05224934416 0.02103999476 59 
0.09760231778 0.05406486262 0.02440335563 44 
0.09800480156 0.03058669571 0.01474350868 45 
0.09840728535 0.03952184694 0.01969448602 53 
0.09880976913 0.0524101146 0.02237084185 54 
0.09921225292 0.03972704644 0.01780110256 58 
0.0996147367 0.01649314187 0.007588714188 45 
0.1000172205 0.03715334208 0.01734613716 60 
0.1004197043 0.03003570796 0.01397103995 59 
0.1008221881 0.02111154752 0.009991568625 63 
0.1012246718 0.03474591169 0.0161828371 68 
0.1016271556 0.005840452263 0.001249718378 57 
0.1020296394 0.02474167871 0.0115498488 57 
0.1024321232 0.04795975176 0.0184929611 60 
0.102834607 0.004962170217 0.001234273126 49 
0.1032370908 0.02830523674 0.01350115479 51 
0.1036395745 0.01461916105 0.007550173766 59 
0.1040420583 0.03226008083 0.01435329124 62 
0.1044445421 0.03173436432 0.01514352849 68 
0.1048470259 0.009534554368 0.003898538488 53 
0.1052495097 0.04908337288 0.0187053315 63 
0.1056519935 0.04860589612 0.01720318605 67 
0.1060544773 0.0297044487 0.01315411616 61 
0.106456961 0.008801998981 0.004221051465 64 
0.1068594448 0.04399426983 0.01813345584 73 
0.1072619286 0.02452702377 0.01177033286 64 
0.1076644124 0.02425425566 0.01137181079 61 
0.1080668962 0.02364321514 0.01244872269 60 
0.10846938 0.03161510999 0.01263437588 72 
0.1088718637 0.02612910362 0.01309906498 56 
0.1092743475 0.03462464748 0.01451173632 68 
0.1096768313 0.01965173946 0.008728922485 58 
0.1100793151 0.055369691 0.01927889637 70 
0.1104817989 0.04491521097 0.01591376328 70 
0.1108842827 0.02855744978 0.01338918156 66 
0.1112867665 0.02043115776 0.01153165959 69 
0.1116892502 0.02956344368 0.01137494307 61 
0.112091734 0.01527024415 0.007374047988 72 
0.1124942178 0.01731096668 0.007900366967 61 
0.1128967016 0.05762476283 0.01840693588 81 
0.1132991854 0.02398620694 0.009909520099 68 
0.1137016692 0.02987218684 0.0126971715 56 
0.1141041529 0.0431183998 0.01536829994 69 
0.1145066367 0.009619008412 0.004322826127 59 
0.1149091205 0.02284457663 0.01065311026 64 
0.1153116043 0.02539616755 0.009402881236 79 
0.1157140881 0.01484805843 0.006895848906 61 
0.1161165719 0.02612431677 0.01054830816 61 
0.1165190557 0.007303777296 0.003540348635 56 
0.1169215394 0.004936122476 0.001816106228 68 
0.1173240232 0.01513873597 0.00713222668 61 
0.117726507 0.03680439356 0.01305020513 83 
0.1181289908 0.005950188664 0.002244292614 68 
0.1185314746 0.006804489505 0.00292705627 66 
0.1189339584 0.02418349999 0.0089596513 72 
0.1193364422 0.009482229377 0.006036315117 61 
0.1197389259 0.008794128509 0.003581804875 56 
0.1201414097 0.02831206638 0.01111176077 57 
0.1205438935 0.006389396449 0.003056235533 55 
0.1209463773 0.01556753365 0.005983446177 62 
0.1213488611 0.03690536819 0.01307278042 71 
0.1217513449 0.01838429727 0.008131274842 72 
0.1221538286 0.01685442609 0.007999790379 73 
0.1225563124 0.01399512955 0.00673824795 72 
0.1229587962 0.003121026705 0.0005942162374 80 
0.12336128 0.02136143134 0.008344736542 58 
0.1237637638 0.02658904661 0.00960510416 80 
0.1241662476 0.008055656772 0.003912564442 67 
0.1245687314 0.01659598825 0.006542340941 63 
0.1249712151 0.009750013308 0.004976801305 59 
0.1253736989 0.007817862068 0.002941474138 70 
0.1257761827 0.01998802208 0.008383422085 64 
0.1261786665 0.01204275426 0.005252430688 81 
0.1265811503 0.02332304299 0.00925925736 66 
0.1269836341 0.01550700773 0.007041130805 70 
0.1273861178 0.01283379546 0.005550754374 86 
0.1277886016 0.01082141942 0.005124911056 76 
0.1281910854 0.01960099706 0.007356060951 78 
0.1285935692 0.01897684764 0.006452327101 82 
0.128996053 0.01908001053 0.006814641921 68 
0.1293985368 0.01292367414 0.005696278315 59 
0.1298010206 0.009510155109 0.004578361328 68 
0.1302035043 0.01318503298 0.005872822197 62 
0.1306059881 0.007744516483 0.0027280844 73 
0.1310084719 0.01394337202 0.005267228058 78 
0.1314109557 0.007740053714 0.003538661566 80 
0.1318134395 0.01490298855 0.005930787665 85 
0.1322159233 0.01036022532 0.004623802029 84 
0.132618407 0.01672867194 0.006212494163 89 
0.1330208908 0.007472525744 0.003078101447 76 
0.1334233746 0.006126358203 0.002948078281 67 
0.1338258584 0.01348452887 0.005391631836 72 
0.1342283422 0.01118643378 0.004650669081 95 
0.134630826 0.01172855828 0.005234576981 65 
0.1350333098 0.01593927423 0.005967399248 89 
0.1354357935 0.005243417333 0.0018869479 79 
0.1358382773 0.004714488091 0.002755799814 67 
0.1362407611 0.01343032449 0.005550364837 65 
0.1366432449 0.01421014128 0.00523324802 69 
0.1370457287 0.008137036585 0.003630572511 64 
0.1374482125 0.009932733764 0.003490613619 74 
0.1378506962 0.00838677903 0.003423446374 88 
0.13825318 0.0099794138 0.004038868413 71 
0.1386556638 0.01136943176 0.004246573623 84 
0.1390581476 0.004661790495 0.001880212861 92 
0.1394606314 0.00967535192 0.004008828311 68 
0.1398631152 0.009678016006 0.003811521121 85 
0.140265599 0.009797686864 0.003804197758 78 
0.1406680827 0.006560236689 0.002590833281 74 
0.1410705665 0.01058040094 0.004209832823 72 
0.1414730503 0.005782995936 0.002399339568 79 
0.1418755341 0.00354116641 0.001565435112 73 
0.1422780179 0.007700451247 0.003454388854 72 
0.1426805017 0.004143527235 0.002103059651 63 
0.1430829854 0.01526679559 0.005071894164 94 
0.1434854692 0.003430721859 0.001895931403 69 
0.143887953 0.008138726112 0.002895226741 90 
0.1442904368 0.007239740923 0.002994448003 83 
0.1446929206 0.001218604809 0.000204212655 78 
0.1450954044 0.006586864126 0.002489160745 88 
0.1454978882 0.007071714646 0.002684695939 78 
0.1459003719 0.006707499456 0.002849773892 75 
0.1463028557 0.003166981504 0.001001319493 87 
0.1467053395 0.009358299766 0.003140356469 75 
0.1471078233 0.009146130239 0.002997186565 92 
0.1475103071 0.008722003645 0.003112069795 94 
0.1479127909 0.003827873881 0.001470863583 87 
0.1483152746 0.005217258706 0.002129857507 81 
0.1487177584 0.005178906177 0.001666699914 101 
0.1491202422 0.005793481519 0.002098013205 94 
0.149522726 0.004282727675 0.001755781922 78 
0.1499252098 0.001530911627 0.00062368663 70 
0.1503276936 0.003019356311 0.001365185445 80 
0.1507301774 0.00286890983 0.001311363368 92 
0.1511326611 0.003389302248 0.001525090963 71 
0.1515351449 0.004041789059 0.001505942709 93 
0.1519376287 0.005622315783 0.002130653296 84 
0.1523401125 0.002763123939 0.001100889109 77 
0.1527425963 0.002526308679 0.00102287046 102 
0.1531450801 0.005894131128 0.002011415595 92 
0.1535475638 0.004217955097 0.001553244529 85 
0.1539500476 0.004750347286 0.001578338414 91 
0.1543525314 0.00475763427 0.001792956094 101 
0.1547550152 0.002590783223 0.001136564836 88 
0.155157499 0.003546840697 0.00131644146 94 
0.1555599828 0.001916768618 0.0008996686653 88 
0.1559624666 0.004510250448 0.001582069869 83 
0.1563649503 0.008989575406 0.002378434678 91 
0.1567674341 0.003909649589 0.001322367439 109 
0.1571699179 0.00259706206 0.0009344702849 85 
0.1575724017 0.004530708021 0.001606954904 97 
0.1579748855 0.003180355382 0.001182552993 97 
0.1583773693 0.001843394357 0.0008193620223 83 
0.158779853 0.003468188745 0.00125306075 90 
0.1591823368 0.002594000899 0.0008993853841 102 
0.1595848206 0.001327090228 0.0005463700397 83 
0.1599873044 0.002410147736 0.0009016319376 96 
0.1603897882 0.001696867487 0.0006591194351 81 
0.160792272 0.002052983153 0.0006839580127 90 
0.1611947558 0.001068083428 0.0004452248916 97 
0.1615972395 0.001328321879 0.0005763049785 87 
0.1619997233 0.0009984502931 0.0004850226416 78 
0.1624022071 0.001999177126 0.0007333855946 89 
0.1628046909 0.001948199403 0.0007170770925 96 
0.1632071747 0.001398113124 0.0004646802564 99 
0.1636096585 0.002695808385 0.0008380659094 106 
0.1640121422 0.002126795244 0.0006635343514 98 
0.164414626 0.001896222618 0.0007238747189 100 
0.1648171098 0.001700226163 0.0005351833555 80 
0.1652195936 0.0007068360021 0.0001895515482 95 
0.1656220774 0.003066377851 0.0009025053467 92 
0.1660245612 0.001179559132 0.0003960901443 96 
0.166427045 0.001446738311 0.0005195388564 97 
0.1668295287 0.001023363684 0.0004359055321 91 
0.1672320125 0.001684390214 0.0006355422247 81 
0.1676344963 0.0006707944484 0.0001515569451 88 
0.1680369801 0.001020219149 0.0003343707226 98 
0.1684394639 0.001162347216 0.0003967872175 101 
0.1688419477 0.0009776534152 0.0002932173506 103 
0.1692444314 0.0008789634772 0.0002731191577 71 
0.1696469152 0.00105227458 0.0003365313101 98 
0.170049399 0.00046455444 5.928647415e-05 106 
0.1704518828 0.0009224471162 0.0003287466243 99 
0.1708543666 0.0004499692244 6.168107643e-05 97 
0.1712568504 0.001191990279 0.0003730265019 94 
0.1716593342 0.0008706338776 0.0002704551197 103 
0.1720618179 0.0007416733039 0.0002175315543 97 
0.1724643017 0.0008600647417 0.0002525228495 95 
0.1728667855 0.00136639656 0.0003988870157 101 
0.1732692693 0.0006960882122 0.000224285523 96 
0.1736717531 0.0007047704644 0.0002160391475 103 
0.1740742369 0.0002635624126 3.846230348e-05 97 
0.1744767206 0.001000465497 0.0002804553424 104 
0.1748792044 0.0007868631095 0.000245349774 92 
0.1752816882 0.0007179840112 0.0001946230778 106 
0.175684172 0.0005208662536 0.0001536177795 98 
0.1760866558 0.000544179316 0.0001711995545 94 
0.1764891396 0.0005443972352 0.0001354755789 115 
0.1768916234 0.0003752840187 0.0001114958948 89 
0.1772941071 0.0006595457555 0.0001963016473 106 
0.1776965909 0.0004567484895 0.0001005702985 93 
0.1780990747 0.0005511940893 0.0001439575531 106 
0.1785015585 0.0003476250786 9.170109574e-05 109 
0.1789040423 0.0002758713456 3.734948709e-05 101 
0.1793065261 0.0004734277619 0.0001121513312 105 
0.1797090098 0.0004160360973 0.0001079690782 104 
0.1801114936 0.0003952240195 7.726570854e-05 101 
0.1805139774 0.0002696684856 4.454110439e-05 104 
0.1809164612 0.0003341049402 7.73308629e-05 92 
0.181318945 0.0003021654446 5.181046703e-05 93 
0.1817214288 0.0003324449085 5.654088958e-05 116 
0.1821239126 0.0004305551117 8.351608062e-05 111 
0.1825263963 0.0004313298413 9.880907127e-05 107 
0.1829288801 0.0002810639494 4.272207758e-05 105 
0.1833313639 0.0002804522028 4.6471578e-05 104 
0.1837338477 0.0002353666675 4.204436408e-05 84 
0.1841363315 0.0002925878224 4.776503703e-05 107 
0.1845388153 0.0003113521278 4.744825301e-05 109 
0.184941299 0.0003261680359 4.636115473e-05 127 
0.1853437828 0.0003085618062 4.469136306e-05 109 
0.1857462666 0.000323176481 4.447591597e-05 122 
0.1861487504 0.0002361073987 3.434085177e-05 91 
0.1865512342 0.0003065243031 4.529752067e-05 112 
0.186953718 0.0002419341023 3.36959424e-05 115 
0.1873562018 0.0002076383853 3.111111986e-05 103 
0.1877586855 0.0002511722789 3.425034363e-05 121 
0.1881611693 0.0001392622304 2.244926879e-05 100 
0.1885636531 0.000164231839 2.748762194e-05 90 
0.1889661369 0.0001802843163 2.953283685e-05 102 
0.1893686207 0.0001667130677 2.343802858e-05 125 
0.1897711045 0.0001771155589 2.7516363e-05 105 
0.1901735882 0.0001443224233 2.269833291e-05 115 
0.190576072 0.0001296778262 2.092782328e-05 119 
0.1909785558 0.0001394466823 2.364918457e-05 116 
0.1913810396 0.0001592239091 2.580063727e-05 104 
0.1917835234 0.0001240762486 2.023220927e-05 92 
0.1921860072 0.0001176391035 1.919900887e-05 114 
0.192588491 8.379497948e-05 1.494463453e-05 90 
0.1929909747 0.0001368963607 2.247932075e-05 102 
0.1933934585 0.0001212042704 1.948201764e-05 114 
0.1937959423 0.0001138048599 1.976794143e-05 105 
0.1941984261 0.0001516643012 2.260721693e-05 119 
0.1946009099 0.0001291371563 1.944319806e-05 100 
0.1950033937 0.0001535837991 2.532962449e-05 106 
0.1954058775 0.0001549571616 2.363001085e-05 112 
0.1958083612 0.0001451239785 2.148806285e-05 112 
0.196210845 9.781309861e-05 2.070005098e-05 83 
0.1966133288 0.0001511403035 2.273028438e-05 116 
0.1970158126 0.0002200187967 3.219846371e-05 127 
0.1974182964 0.0001624994811 2.542024695e-05 114 
0.1978207802 0.0001992811486 3.945923901e-05 125 
0.1982232639 0.0002169225683 3.189824258e-05 135 
0.1986257477 0.0001106146942 2.120821341e-05 85 
0.1990282315 0.0002260479024 4.366821589e-05 109 
0.1994307153 0.0001835673854 4.490624839e-05 96 
0.1998331991 0.0002138961001 5.000652032e-05 109 
0.2002356829 0.0003621563595 6.882846689e-05 144 
0.2006381667 0.000276605304 5.748736845e-05 127 
0.2010406504 0.0001464173529 2.88594577e-05 105 
0.2014431342 0.0002634982925 4.870580378e-05 111 
0.201845618 0.0004245931113 9.984261094e-05 115 
0.2022481018 0.000221049951 4.517625543e-05 99 
0.2026505856 0.0002729863831 6.704961373e-05 122 
0.2030530694 0.0001845615863 4.053044918e-05 104 
0.2034555531 0.0002017546439 4.437467946e-05 110 
0.2038580369 0.0002146090342 5.743767994e-05 106 
0.2042605207 0.0001474379761 2.899177783e-05 110 
0.2046630045 0.0003112673133 8.690950713e-05 100 
0.2050654883 0.0002683384898 6.946274888e-05 138 
0.2054679721 0.0002928661124 8.839160164e-05 125 
0.2058704559 0.0002066656614 5.971942657e-05 110 
0.2062729396 0.0002444029404 6.614013098e-05 114 
0.2066754234 0.0002497569322 8.4435138e-05 97 
0.2070779072 0.0004071938606 0.0001273165261 119 
0.207480391 0.0003000116414 0.0001037000874 98 
0.2078828748 0.0003355143187 0.0001089276481 107 
0.2082853586 0.0002702678054 8.189834154e-05 146 
0.2086878423 0.0003778943327 0.0001181190729 148 
0.2090903261 0.0003054499995 0.0001143576308 121 
0.2094928099 0.0005342429742 0.0001732051895 124 
0.2098952937 0.0001500364375 4.643091967e-05 127 
0.2102977775 0.0004500796451 0.000160874238 120 
0.2107002613 0.0002887960503 0.000115060891 122 
0.2111027451 0.0002258788178 0.0001168954087 110 
0.2115052288 0.0002476941664 7.517108583e-05 112 
0.2119077126 0.0003458713492 0.0001181681168 118 
0.2123101964 0.0003761041112 0.0001237322351 126 
0.2127126802 0.000366222203 0.0001443744869 133 
0.213115164 0.0003433849896 0.0001385173384 112 
0.2135176478 0.0004072370508 0.0001346314768 116 
0.2139201315 0.0004369728052 0.0001516232221 105 
0.2143226153 0.0002253493768 0.0001130402482 109 
0.2147250991 0.0005044322242 0.0001849680942 136 
0.2151275829 0.000521173336 0.0001771035282 115 
0.2155300667 0.0004319236678 0.0001790658372 116 
0.2159325505 0.0004188302284 0.0001864540814 112 
0.2163350343 0.0006391904058 0.0002267520624 130 
0.216737518 0.0004258656112 0.0001567335522 116 
0.2171400018 0.0001020860365 1.798808002e-05 109 
0.2175424856 0.0005587856754 0.0001982440519 140 
0.2179449694 0.0007878443377 0.0002551772538 122 
0.2183474532 0.001156526569 0.0003339116477 147 
0.218749937 0.0003725534729 0.0001350452907 131 
0.2191524207 0.0006310082607 0.0002254292065 130 
0.2195549045 0.0006704109025 0.0002490579658 128 
0.2199573883 0.0003303542393 0.0001690169487 99 
0.2203598721 0.0007558331441 0.0003179739481 121 
0.2207623559 0.0005578534328 0.0002354341908 110 
0.2211648397 0.0008481802534 0.0002841665415 114 
0.2215673235 0.0002516012972 6.93777523e-05 138 
0.2219698072 0.001117606048 0.0003608252054 142 
0.222372291 0.0005809257481 0.0002609664977 136 
0.2227747748 0.0003194791366 0.0001764059236 131 
0.2231772586 0.0004143231197 0.0001643624249 126 
0.2235797424 0.0007003594034 0.0002651126148 124 
0.2239822262 0.0009065406623 0.0003222440496 119 
0.2243847099 0.0004658116392 0.0002202269664 128 
0.2247871937 0.001121723052 0.0003722882808 130 
0.2251896775 0.0004069250482 0.0001758515663 133 
0.2255921613 0.001193729265 0.0003991535213 134 
0.2259946451 0.0008206901137 0.0003278178278 119 
0.2263971289 0.0003237977793 0.0002054054862 128 
0.2267996127 0.0003858832814 0.0001756439563 128 
0.2272020964 0.000544738761 0.0002465111296 119 
0.2276045802 0.0006426212406 0.0002936462899 107 
0.228007064 0.0002532563251 0.0001587778929 114 
0.2284095478 0.0005175764423 0.0002431456626 117 
0.2288120316 0.0003245880627 0.0001340554445 128 
0.2292145154 0.0008903353093 0.000356077044 133 
0.2296169991 0.0008146635985 0.000324578763 125 
0.2300194829 0.0008243009074 0.0003347506747 138 
0.2304219667 0.0004366564025 0.0002141816418 126 
0.2308244505 0.0007901153633 0.0003121714751 125 
0.2312269343 0.001072147033 0.0004172738416 132 
0.2316294181 0.0006995585642 0.0002990405814 150 
0.2320319019 0.001369486022 0.0004610563375 145 
0.2324343856 0.0005364494973 0.0002527120533 128 
0.2328368694 0.0005364289078 0.0002410641509 115 
0.2332393532 0.0009205790854 0.0003841668919 138 
0.233641837 0.0008322054439 0.0003270569932 149 
0.2340443208 0.0008142738174 0.0003190322051 124 
0.2344468046 0.0001329851596 2.60055046e-05 117 
0.2348492883 0.0004800504777 0.0002127875658 137 
0.2352517721 0.0007835980121 0.0003320626337 125 
0.2356542559 0.0005307250445 0.0002543940989 145 
0.2360567397 0.001075289378 0.0004240534051 142 
0.2364592235 0.000829203498 0.0003521024922 138 
0.2368617073 0.0006537211151 0.0002979039658 143 
0.2372641911 0.0009286250892 0.0003862482549 146 
0.2376666748 0.001293543633 0.0004499418579 127 
0.2380691586 0.001024630007 0.0003998410837 141 
0.2384716424 0.0009873250513 0.000418375465 120 
0.2388741262 0.0002802222021 0.0001280167933 129 
0.23927661 0.001298187097 0.0004991257449 134 
0.2396790938 0.0003525624779 0.000136930772 151 
0.2400815775 0.0005538397701 0.0002708636757 132 
0.2404840613 0.0008684179329 0.000382621061 136 
0.2408865451 0.0008853787866 0.000358585033 118 
0.2412890289 0.0003176736268 0.0001801528288 132 
0.2416915127 0.0005746076117 0.0002339665941 132 
0.2420939965 0.0004987283169 0.0002297573946 135 
0.2424964803 0.0007710520035 0.0003599542869 143 
0.242898964 0.0008521045844 0.0003553781549 115 
0.2433014478 0.0006636904741 0.000361174429 131 
0.2437039316 0.0005136628898 0.0002714099912 130 
0.2441064154 0.000108735398 2.458650045e-05 139 
0.2445088992 0.0005473497236 0.0002404024094 145 
0.244911383 0.0006318696282 0.0003244158421 107 
0.2453138667 0.0004775412033 0.0002966459729 131 
0.2457163505 0.001315134571 0.0004630989625 128 
0.2461188343 0.0008750387072 0.0004150473734 150 
0.2465213181 0.0009403136692 0.0003976010154 136 
0.2469238019 0.001405712623 0.0005121367215 151 
0.2473262857 0.001194486822 0.0004848907816 143 
0.2477287695 0.000733558112 0.000318819595 157 
0.2481312532 0.0005474868493 0.0002075668273 158 
0.248533737 0.0002386909393 0.0001030193856 137 
0.2489362208 0.001351756862 0.0004769862556 153 
0.2493387046 0.001358280891 0.0004916768858 139 
0.2497411884 0.000551143751 0.0002972427269 131 
0.2501436722 0.0001224553479 2.780593342e-05 140 
0.2505461559 0.0004539899072 0.0001965603864 141 
0.2509486397 0.0008137540998 0.0004185434779 107 
0.2513511235 0.0003778161741 0.0001675506864 130 
0.2517536073 0.0008746164267 0.0004023857932 139 
0.2521560911 0.0008940084151 0.000411722239 143 
0.2525585749 0.000491750698 0.0002515823812 127 
0.2529610587 0.0005248323075 0.0002685204557 149 
0.2533635424 0.0005588659258 0.000298767733 129 
0.2537660262 0.0007531179752 0.0003685518508 157 
0.25416851 0.001121978287 0.0004590260288 139 
0.2545709938 0.0003702112104 0.0002575144683 160 
0.2549734776 0.001637802548 0.0005811248244 142 
0.2553759614 0.0006957036574 0.0003388375064 145 
0.2557784451 0.0006428257518 0.0003555964025 132 
0.2561809289 0.0009651072107 0.0004321350398 151 
0.2565834127 0.0008676100945 0.0003508052067 157 
0.2569858965 0.0005906380243 0.0002962240902 149 
0.2573883803 0.0006449412985 0.0003383106729 135 
0.2577908641 0.0003344099031 0.0001223899561 141 
0.2581933479 0.001408958218 0.0005453909077 152 
0.2585958316 0.00098204738 0.0004047078894 152 
0.2589983154 0.0002495881928 0.0001683654766 124 
0.2594007992 0.0009907135554 0.0004228035978 134 
0.259803283 0.000550922584 0.0002619238019 158 
0.2602057668 0.001179329804 0.0004698099424 134 
0.2606082506 0.0006611184827 0.0003143093466 146 
0.2610107343 0.0007479925092 0.0003615268004 144 
0.2614132181 0.001007077908 0.000419394154 126 
0.2618157019 0.001028760458 0.0004165248529 170 
0.2622181857 0.0008419757379 0.000412897085 156 
0.2626206695 0.00116295607 0.0004173469086 144 
0.2630231533 0.0005443749762 0.000255845549 143 
0.2634256371 0.001400042216 0.000508656383 138 
0.2638281208 0.0005440705501 0.000275788728 149 
0.2642306046 0.001357633786 0.0004891235178 147 
0.2646330884 0.0008445122504 0.0003800489574 159 
0.2650355722 0.001228480937 0.0004721853586 165 
0.265438056 0.0004868117592 0.0002272554639 154 
0.2658405398 0.0005054624412 0.0002491595005 131 
0.2662430235 0.0005316622594 0.0003175187624 163 
0.2666455073 0.000879389423 0.000383650792 131 
0.2670479911 0.0005138264413 0.0002915513582 153 
0.2674504749 0.0008450129881 0.0003727274014 128 
0.2678529587 0.0005289644534 0.0003104009006 168 
0.2682554425 0.00101890798 0.0004302526551 146 
0.2686579263 0.001007633466 0.0004119547502 147 
0.26906041 0.0006429292069 0.000313272315 158 
0.2694628938 0.0004656983706 0.0002439999344 166 
0.2698653776 0.0008592872255 0.0003913324001 158 
0.2702678614 0.0006900231864 0.0002587138009 123 
0.2706703452 0.001327776248 0.0004901849905 153 
0.271072829 0.0003655745146 0.000231528055 133 
0.2714753127 0.001116039781 0.0004097727126 146 
0.2718777965 0.001040631582 0.0004012976735 149 
0.2722802803 0.001034484319 0.0004127870576 173 
0.2726827641 0.0005758893494 0.0002913270591 151 
0.2730852479 0.0003377872066 0.0002134462522 145 
0.2734877317 0.0007636767311 0.0003498685314 141 
0.2738902155 0.0004260514511 0.0002584993009 141 
0.2742926992 0.0004595579501 0.0002449060144 150 
0.274695183 0.0004778171633 0.0002236801054 158 
0.2750976668 0.000711705981 0.0003071636706 156 
0.2755001506 0.0007724338415 0.0003649275582 139 
0.2759026344 0.000656123064 0.0003029980324 166 
0.2763051182 0.000394469261 0.0002162295997 162 
0.276707602 0.0005307555481 0.000279994447 151 
0.2771100857 0.000265440947 0.0001807229301 128 
0.2775125695 0.0003958649784 0.0002212924837 138 
0.2779150533 0.0005478716036 0.0002630572487 144 
0.2783175371 0.0006569513104 0.0002753253008 162 
0.2787200209 0.0006129227553 0.0003013373661 140 
0.2791225047 0.0008040282245 0.000335951291 164 
0.2795249884 0.0009803395985 0.0003971713036 149 
0.2799274722 0.0004479198895 0.0002400562652 160 
0.280329956 0.000496810265 0.0002283191892 153 
0.2807324398 0.0008854389546 0.0003468231899 171 
0.2811349236 0.0008336201416 0.0003433965306 155 
0.2815374074 0.001055593508 0.000381703204 141 
0.2819398912 0.0007289180545 0.0003069830675 173 
0.2823423749 0.0008172030138 0.0003085982378 154 
0.2827448587 0.0003468298006 0.0001930706318 139 
0.2831473425 0.001149617386 0.0003984541412 164 
0.2835498263 0.0007891469796 0.0002881934505 150 
0.2839523101 0.0005644933582 0.0002554618013 179 
0.2843547939 0.0005731051942 0.0002567234531 169 
0.2847572776 0.0002523908868 0.0001214052348 163 
0.2851597614 0.000232316487 0.0001292996553 194 
0.2855622452 0.0007027012331 0.0002819248753 189 
0.285964729 0.0007034737344 0.0002640199908 174 
0.2863672128 0.0004608990045 0.0002342223408 159 
0.2867696966 0.0004145856439 0.0002201442854 182 
0.2871721804 0.0009013562047 0.000320507982 161 
0.2875746641 0.001048764762 0.0003341988633 170 
0.2879771479 0.000303677016 0.0001473836219 185 
0.2883796317 0.0004477186923 0.0001960906278 153 
0.2887821155 0.0007088209326 0.0002920273694 183 
0.2891845993 0.0008755645877 0.0002961686495 172 
0.2895870831 0.0002449183462 0.0001106591626 153 
0.2899895668 0.0008082183071 0.0003105421831 190 
0.2903920506 0.000302390195 0.0001515944065 166 
0.2907945344 0.0002869753669 0.0001486560844 181 
0.2911970182 0.0005508167602 0.0002457148381 163 
0.291599502 0.000488184485 0.0002168733966 154 
0.2920019858 0.000365610798 0.0001769145614 157 
0.2924044696 0.0003145324871 0.0001696149794 161 
0.2928069533 0.0005118383732 0.0002239811604 152 
0.2932094371 0.0008786067501 0.0002947201918 175 
0.2936119209 0.0002435469423 0.0001404548841 144 
0.2940144047 0.0004056830351 0.0001865643058 162 
0.2944168885 0.0001991178291 9.765690508e-05 173 
0.2948193723 0.000313737111 0.0001463476125 162 
0.295221856 0.0003842261759 0.0001700869173 167 
0.2956243398 0.0002809002844 0.0001335156567 160 
0.2960268236 0.0002443322514 0.0001225211755 157 
0.2964293074 0.0002149460716 0.0001144451349 176 
0.2968317912 0.0003713869729 0.0001816255251 192 
0.297234275 0.000631065119 0.0002012636868 183 
0.2976367588 0.0004344988708 0.0001749139428 151 
0.2980392425 0.0003777216951 0.0001723980608 190 
0.2984417263 0.0005397594199 0.0001891479328 186 
0.2988442101 0.0003460469015 0.0001489114537 167 
0.2992466939 0.0003728524001 0.0001662641856 172 
0.2996491777 0.0006325935161 0.0002145705924 182 
0.3000516615 0.0005482755744 0.0001861400864 184 
0.3004541452 0.0003364090907 0.0001465406773 205 
0.300856629 0.0001722652511 9.259425156e-05 173 
0.3012591128 0.0003028103765 0.0001430156792 199 
0.3016615966 0.0003401026699 0.0001496512836 181 
0.3020640804 0.0005288289925 0.0001955095652 187 
0.3024665642 0.0001473697618 7.638341918e-05 162 
0.302869048 0.0001088291442 5.504344573e-05 160 
0.3032715317 0.0005740323712 0.0002028469609 191 
0.3036740155 0.0004033674206 0.0001657792195 168 
0.3040764993 0.0005951115374 0.0002043358379 185 
0.3044789831 0.0001062396983 4.800454839e-05 185 
0.3048814669 0.0005590774142 0.0001572678722 190 
0.3052839507 0.0003468289512 0.0001467467707 183 
0.3056864344 0.0001252016914 6.125129293e-05 174 
0.3060889182 0.0003407409466 0.0001407057185 154 
0.306491402 0.0003314446916 0.0001428172429 176 
0.3068938858 0.0002664719611 0.0001113504818 174 
0.3072963696 0.0004067426735 0.000149198167 146 
0.3076988534 0.0003761665045 0.0001332020566 188 
0.3081013372 0.0002915180722 0.0001071186104 177 
0.3085038209 0.000177282566 8.247901604e-05 175 
0.3089063047 0.0003109026214 0.0001187909135 180 
0.3093087885 8.917532652e-05 4.419214488e-05 159 
0.3097112723 0.0002021748799 8.504816614e-05 155 
0.3101137561 0.0003435098494 0.000126647718 200 
0.3105162399 0.0001490795233 8.557077851e-05 166 
0.3109187236 0.0001047392246 4.066016796e-05 162 
0.3113212074 0.0001809812551 9.167959567e-05 174 
0.3117236912 0.0002109389837 9.531163872e-05 182 
0.312126175 0.0001313818392 6.373388204e-05 196 
0.3125286588 0.0001821420529 8.686653008e-05 185 
0.3129311426 0.0001221436551 6.783100753e-05 196 
0.3133336264 0.0003756356993 0.0001217790291 189 
0.3137361101 0.0001939466422 7.114512749e-05 181 
0.3141385939 0.0002236324494 0.0001028681858 176 
0.3145410777 0.0001747069338 8.226255324e-05 182 
0.3149435615 6.116503068e-05 2.658186899e-05 166 
0.3153460453 0.0001483958519 5.640931856e-05 188 
0.3157485291 0.0002380589667 9.179304586e-05 176 
0.3161510128 0.000133260514 5.491780423e-05 198 
0.3165534966 0.0002136323606 8.533616511e-05 167 
0.3169559804 9.215991488e-05 4.491988602e-05 178 
0.3173584642 0.0003202005845 0.0001011474088 159 
0.317760948 0.0002065573347 8.61262175e-05 186 
0.3181634318 0.0002236388103 8.00962786e-05 158 
0.3185659156 0.0001712803171 6.944839398e-05 195 
0.3189683993 0.0001335950765 6.240289474e-05 163 
0.3193708831 8.659707068e-05 4.236066459e-05 173 
0.3197733669 0.0001131122239 4.098679449e-05 170 
0.3201758507 0.0001549730048 5.878854178e-05 175 
0.3205783345 0.0001702014235 5.864173261e-05 215 
0.3209808183 6.568653486e-05 3.328871831e-05 160 
0.321383302 4.841735885e-05 2.059556377e-05 168 
0.3217857858 9.740177704e-05 4.283484965e-05 189 
0.3221882696 0.0001542351715 5.508563757e-05 172 
0.3225907534 3.390404933e-05 1.395157033e-05 175 
0.3229932372 0.0001110653837 4.642064766e-05 163 
0.323395721 5.234368256e-05 1.892971462e-05 162 
0.3237982048 0.0001029886931 4.302475208e-05 174 
0.3242006885 0.0001045145004 4.697927324e-05 198 
0.3246031723 7.212053332e-05 3.441822467e-05 177 
0.3250056561 7.635519088e-05 3.152039587e-05 175 
0.3254081399 0.0001175729527 3.750399352e-05 191 
0.3258106237 9.9439115e-05 4.399501988e-05 154 
0.3262131075 9.548348897e-05 3.611818232e-05 161 
0.3266155912 5.742722259e-05 1.834277007e-05 177 
0.327018075 5.485855883e-05 2.754402968e-05 202 
0.3274205588 3.786688332e-05 2.219917393e-05 161 
0.3278230426 8.000100839e-05 2.745272647e-05 188 
0.3282255264 6.944973447e-05 2.900355011e-05 187 
0.3286280102 8.75172508e-05 3.502531325e-05 167 
0.329030494 7.281329755e-05 2.572760471e-05 179 
0.3294329777 2.620432349e-05 1.198817881e-05 189 
0.3298354615 6.00428452e-05 1.873833892e-05 177 
0.3302379453 3.192298705e-05 1.342373516e-05 184 
0.3306404291 4.683473441e-05 1.551033718e-05 195 
0.3310429129 3.423094661e-05 1.9378017e-05 169 
0.3314453967 2.28175027e-05 8.268862637e-06 192 
0.3318478804 7.555576561e-05 2.932581667e-05 208 
0.3322503642 2.593877673e-05 1.297742023e-05 221 
0.332652848 1.551280988e-05 4.464314965e-06 174 
0.3330553318 8.375118883e-05 2.885420658e-05 203 
0.3334578156 3.644523179e-05 1.292050088e-05 206 
0.3338602994 5.538163887e-05 1.604086081e-05 195 
0.3342627832 3.952203123e-05 1.475127722e-05 198 
0.3346652669 1.749926538e-05 6.405122082e-06 162 
0.3350677507 1.795069369e-05 5.740381249e-06 180 
0.3354702345 4.868026256e-05 1.756188801e-05 198 
0.3358727183 2.237549326e-05 8.044698096e-06 197 
0.3362752021 2.484781958e-05 9.201057269e-06 188 
0.3366776859 2.359359657e-05 8.211117331e-06 195 
0.3370801696 3.037967939e-05 1.171993909e-05 175 
0.3374826534 3.164313035e-05 1.1701707e-05 176 
0.3378851372 1.62917928e-05 3.503232702e-06 205 
0.338287621 2.426706098e-05 8.14475603e-06 199 
0.3386901048 1.503509903e-05 3.756701159e-06 226 
0.3390925886 2.742398437e-05 8.468432808e-06 213 
0.3394950724 2.074520057e-05 6.010425843e-06 193 
0.3398975561 1.820131524e-05 8.504846392e-06 162 
0.3403000399 1.12971044e-05 2.924023768e-06 165 
0.3407025237 8.065108958e-06 1.388990683e-06 196 
0.3411050075 2.178775615e-05 7.957053126e-06 200 
0.3415074913 2.472903635e-05 8.636875341e-06 182 
0.3419099751 1.557937082e-05 6.133368674e-06 193 
0.3423124588 1.65317549e-05 3.841836854e-06 203 
0.3427149426 9.289230096e-06 1.971581203e-06 179 
0.3431174264 1.001344494e-05 2.95398649e-06 189 
0.3435199102 9.283403325e-06 2.165014682e-06 189 
0.343922394 6.866487678e-06 1.13818653e-06 191 
0.3443248778 1.751205614e-05 5.243804507e-06 221 
0.3447273616 7.387085996e-06 1.283242528e-06 202 
0.3451298453 9.247473882e-06 2.60172763e-06 201 
0.3455323291 6.559593908e-06 9.766749274e-07 180 
0.3459348129 1.145089006e-05 4.193218397e-06 182 
0.3463372967 9.287266932e-06 2.002067334e-06 216 
0.3467397805 6.200033894e-06 1.803483672e-06 195 
0.3471422643 6.89206042e-06 1.911728335e-06 209 
0.347544748 7.23864552e-06 1.490519345e-06 208 
0.3479472318 4.590782245e-06 5.282717882e-07 204 
0.3483497156 5.373860231e-06 1.035865197e-06 169 
0.3487521994 8.400080211e-06 1.787486227e-06 198 
0.3491546832 3.618887727e-06 4.046786481e-07 187 
0.349557167 4.180401811e-06 4.458854636e-07 197 
0.3499596508 5.561677569e-06 8.79199328e-07 200 
0.3503621345 4.649781555e-06 8.86854675e-07 181 
0.3507646183 5.259305247e-06 1.007877339e-06 198 
0.3511671021 5.908286362e-06 8.114906813e-07 225 
0.3515695859 5.611869666e-06 7.379536311e-07 204 
0.3519720697 4.010208316e-06 4.416378414e-07 184 
0.3523745535 4.290060951e-06 5.57843847e-07 209 
0.3527770373 3.875931156e-06 5.697950183e-07 184 
0.353179521 7.223881239e-06 1.918320408e-06 228 
0.3535820048 4.171825243e-06 4.750581442e-07 204 
0.3539844886 7.845850949e-06 2.379054879e-06 194 
0.3543869724 8.75303865e-06 3.193663126e-06 190 
0.3547894562 6.67519813e-06 1.801872677e-06 211 
0.35519194 5.614410034e-06 8.772616398e-07 220 
0.3555944237 5.832801267e-06 8.105230218e-07 239 
0.3559969075 4.958849153e-06 6.287298639e-07 203 
0.3563993913 6.071991213e-06 1.099963464e-06 216 
0.3568018751 6.540322836e-06 1.540083849e-06 201 
0.3572043589 7.176390473e-06 1.514565982e-06 226 
0.3576068427 6.801032219e-06 1.379016102e-06 210 
0.3580093265 1.014247019e-05 3.737944852e-06 209 
0.3584118102 1.284683531e-05 4.649227752e-06 204 
0.358814294 9.883946664e-06 3.287445322e-06 204 
0.3592167778 1.816636703e-05 7.144914941e-06 205 
0.3596192616 8.118446889e-06 2.55482375e-06 198 
0.3600217454 1.525023951e-05 5.145411211e-06 242 
0.3604242292 1.897100701e-05 7.71139283e-06 190 
0.3608267129 5.070983588e-06 9.115620598e-07 209 
0.3612291967 1.59248348e-05 6.954977619e-06 210 
0.3616316805 2.142776128e-05 9.571107903e-06 201 
0.3620341643 1.494040012e-05 6.024120042e-06 202 
0.3624366481 2.846007855e-05 1.059858593e-05 185 
0.3628391319 2.324975704e-05 7.850217868e-06 210 
0.3632416157 1.545824711e-05 8.805200978e-06 206 
0.3636440994 2.073694322e-05 9.084810389e-06 239 
0.3640465832 2.005077089e-05 7.830357193e-06 201 
0.364449067 4.354073621e-05 1.487911406e-05 231 
0.3648515508 2.409699536e-05 1.263220714e-05 203 
0.3652540346 2.453488056e-05 7.86987325e-06 205 
0.3656565184 2.630018669e-05 1.143771234e-05 234 
0.3660590021 5.459070328e-06 2.546012986e-06 195 
0.3664614859 3.28131047e-05 1.529452481e-05 206 
0.3668639697 2.594169596e-05 1.004370374e-05 209 
0.3672664535 2.230534639e-05 9.072106778e-06 218 
0.3676689373 2.628718451e-05 1.111737113e-05 215 
0.3680714211 3.125586898e-05 1.534762248e-05 222 
0.3684739049 1.597772923e-05 7.504201509e-06 182 
0.3688763886 2.622974807e-05 1.219190792e-05 220 
0.3692788724 2.827577994e-05 1.072725656e-05 226 
0.3696813562 1.647434126e-05 1.106096863e-05 204 
0.37008384 6.053272057e-05 2.229789524e-05 212 
0.3704863238 1.460017176e-05 6.584641086e-06 176 
0.3708888076 2.292593321e-05 1.132602831e-05 234 
0.3712912913 2.303417322e-05 9.874510984e-06 214 
0.3716937751 6.793290378e-05 2.633453754e-05 189 
0.3720962589 4.10802244e-05 1.926159621e-05 198 
0.3724987427 6.538758047e-05 2.153668825e-05 242 
0.3729012265 3.622204861e-05 1.839447639e-05 214 
0.3733037103 4.03856929e-05 1.602979796e-05 213 
0.3737061941 5.556985826e-05 2.17460383e-05 201 
0.3741086778 2.990543415e-05 1.253551467e-05 223 
0.3745111616 4.657896451e-05 1.761796108e-05 210 
0.3749136454 3.998022561e-05 2.075959502e-05 206 
0.3753161292 2.176785343e-05 1.362074241e-05 195 
0.375718613 5.079043162e-05 1.684715289e-05 228 
0.3761210968 7.387073708e-05 3.131242623e-05 196 
0.3765235805 7.908249625e-05 3.347779112e-05 220 
0.3769260643 2.326755055e-05 1.753314267e-05 207 
0.3773285481 4.588641271e-05 2.065879523e-05 218 
0.3777310319 6.879660631e-05 3.060187955e-05 229 
0.3781335157 7.336007489e-05 2.692780355e-05 200 
0.3785359995 1.488226277e-05 5.710026649e-06 225 
0.3789384833 3.110155274e-05 1.676647398e-05 202 
0.379340967 7.670967769e-05 3.295279789e-05 209 
0.3797434508 7.438279868e-05 3.385937414e-05 200 
0.3801459346 2.072343531e-05 1.550396644e-05 227 
0.3805484184 7.30380321e-05 2.970958302e-05 230 
0.3809509022 4.948191268e-05 2.751656266e-05 203 
0.381353386 5.098586084e-05 2.868025301e-05 214 
0.3817558697 8.298461889e-05 3.081985539e-05 234 
0.3821583535 8.821229414e-05 3.88364689e-05 197 
0.3825608373 9.401084018e-05 3.78009854e-05 215 
0.3829633211 0.0001065527425 4.064716314e-05 242 
0.3833658049 9.86589802e-05 3.680048756e-05 229 
0.3837682887 6.680749085e-05 3.214288435e-05 216 
0.3841707725 7.799181462e-05 3.399035481e-05 206 
0.3845732562 4.907527976e-05 2.681054367e-05 235 
0.38497574 6.212214394e-05 2.858740435e-05 222 
0.3853782238 8.297757413e-05 3.895655475e-05 221 
0.3857807076 8.239763083e-05 3.737096968e-05 241 
0.3861831914 7.27744584e-06 1.973693333e-06 209 
0.3865856752 4.092060098e-05 2.596756186e-05 202 
0.3869881589 6.19696196e-05 2.863690628e-05 204 
0.3873906427 9.669416217e-06 3.641981057e-06 200 
0.3877931265 9.413355238e-05 3.866853775e-05 253 
0.3881956103 3.838727193e-05 1.959919748e-05 219 
0.3885980941 6.573159638e-05 3.262386758e-05 243 
0.3890005779 9.080755515e-05 3.941994755e-05 213 
0.3894030617 0.0001142246801 4.64268336e-05 218 
0.3898055454 4.184689724e-05 2.214411106e-05 191 
0.3902080292 5.333960767e-05 2.549358229e-05 227 
0.390610513 0.0001450244002 5.327363852e-05 239 
0.3910129968 5.934189343e-05 2.862952616e-05 234 
0.3914154806 5.184954793e-05 2.851239484e-05 197 
0.3918179644 7.795171539e-05 4.049923538e-05 233 
0.3922204481 8.38598551e-05 4.184339777e-05 250 
0.3926229319 0.0001023106384 4.538790779e-05 214 
0.3930254157 8.815697459e-05 4.205890058e-05 212 
0.3934278995 0.0001151081813 4.931956157e-05 224 
0.3938303833 0.0001377992664 5.097012257e-05 215 
0.3942328671 6.305968682e-05 3.272192347e-05 217 
0.3946353509 7.104288868e-05 3.644014941e-05 230 
0.3950378346 0.0001757290765 6.227310436e-05 251 
0.3954403184 5.761105044e-05 2.856144179e-05 222 
0.3958428022 0.0001195154909 4.501071127e-05 257 
0.396245286 3.22227098e-05 1.434133208e-05 225 
0.3966477698 8.488814534e-05 4.148810632e-05 203 
0.3970502536 7.569934569e-05 4.536280362e-05 220 
0.3974527373 7.225122276e-05 3.503655643e-05 242 
0.3978552211 8.0354444e-05 4.417257746e-05 221 
0.3982577049 0.0001079319935 4.637032161e-05 228 
0.3986601887 0.0001502007679 5.967450945e-05 207 
0.3990626725 4.380126042e-05 3.126378271e-05 211 
0.3994651563 7.806048714e-05 4.264039418e-05 244 
0.3998676401 0.000126006023 5.332451702e-05 251 
0.4002701238 7.209677623e-05 4.157960493e-05 214 
0.4006726076 7.329831456e-05 3.590687924e-05 227 
0.4010750914 9.998313561e-05 4.30203313e-05 211 
0.4014775752 7.711858186e-05 4.183836311e-05 227 
0.401880059 1.728559584e-05 1.217690314e-05 215 
0.4022825428 4.779878413e-05 2.828212953e-05 210 
