# Format: McCode with text headers
# URL: http://www.mccode.org
# Creator: McXtrace 1.7 - Jan. 23, 2022
# Instrument: templateSasView.instr
# Ncount: 1000000
# Trace: no
# Gravitation: no
# Seed: 1647939208
# Directory: /tmp/templateSasView_20220225_150208
# Param: lambda=1.54
# Param: dlambda=0.05
# Date: Fri Feb 25 15:02:11 2022 (1645797731)
# type: array_1d(1000)
# Source: templateSasView (templateSasView.instr)
# component: QMonitor
# position: 0 0 9.22
# title: QMonitor - Radially averaged distribution
# Ncount: 1000000
# filename: RDetector.dat
# statistics: X0=0.0195743; dX=0.0213428;
# signal: Min=0; Max=0.790807; Mean=0.0226375;
# values: 22.6375 1.39835 113980
# xvar: r
# yvar: (I,I_err)
# xlabel: Radius [m]
# ylabel: I(r)
# xlimits: 0 0.3
# variables: r I I_err N
0.00015 0 0 0 
0.00045 0 0 0 
0.00075 0 0 0 
0.00105 0 0 0 
0.00135 0.4930556276 0.4930556276 1 
0.00165 0.7908073287 0.5596115058 2 
0.00195 0.6709212137 0.4759147133 2 
0.00225 0.3095783826 0.3095783826 1 
0.00255 0 0 0 
0.00285 0.2440472619 0.2440472619 1 
0.00315 0.4344304879 0.3072143359 2 
0.00345 0.1788932548 0.1788932548 1 
0.00375 0.5353890459 0.3093743447 3 
0.00405 0.2830791187 0.2017951761 2 
0.00435 0.3374554814 0.1982344081 3 
0.00465 0.7159969174 0.2978359626 6 
0.00495 0.08526000743 0.08526000743 1 
0.00525 0.1867783686 0.1324835421 2 
0.00555 0.2750221689 0.1606400063 3 
0.00585 0.580911145 0.2281774081 7 
0.00615 0.1761615811 0.1320861738 2 
0.00645 0.3984146556 0.1696389555 6 
0.00675 0.2410028489 0.1482081533 3 
0.00705 0.5458297131 0.2139162918 7 
0.00735 0.4685624447 0.1853762043 7 
0.00765 0.414808517 0.1615657466 8 
0.00795 0.4157708224 0.1765030944 6 
0.00825 0.1998011316 0.09893194762 6 
0.00855 0.3132020157 0.130039967 7 
0.00885 0.2638561193 0.1234729551 7 
0.00915 0.3470589682 0.131059113 9 
0.00945 0.2785709361 0.1167164503 9 
0.00975 0.2984372377 0.1268907791 8 
0.01005 0.2288940232 0.110153296 8 
0.01035 0.3548456645 0.1450835394 7 
0.01065 0.1255954219 0.06206116059 5 
0.01095 0.09920789748 0.06565074703 6 
0.01125 0.2480577871 0.1017508287 9 
0.01155 0.2466018431 0.09641179952 13 
0.01185 0.04564611653 0.02689170953 7 
0.01215 0.1161264449 0.05087357808 10 
0.01245 0.2534513971 0.1113361544 10 
0.01275 0.07864199171 0.05842537424 6 
0.01305 0.184261637 0.08617296292 11 
0.01335 0.05444911586 0.02886108348 9 
0.01365 0.07109922317 0.05595641105 8 
0.01395 0.1983814459 0.08402277244 8 
0.01425 0.1533709046 0.07587920504 10 
0.01455 0.1246125728 0.07136347646 7 
0.01485 0.0596719371 0.0384247004 12 
0.01515 0.08326534432 0.05253827053 9 
0.01545 0.122866708 0.0684637583 12 
0.01575 0.1035645737 0.05578813318 10 
0.01605 0.1464499758 0.07494921739 10 
0.01635 0.1823552439 0.07465657896 17 
0.01665 0.02817274463 0.0138395259 12 
0.01695 0.1893290617 0.07857279908 14 
0.01725 0.1054623462 0.05367394668 13 
0.01755 0.1128795846 0.05836744394 13 
0.01785 0.1813590831 0.07280774043 15 
0.01815 0.08654612041 0.04812224516 9 
0.01845 0.1331598719 0.06094973368 12 
0.01875 0.1808727669 0.07204900866 14 
0.01905 0.1785183786 0.06607525505 23 
0.01935 0.03996277609 0.01481819934 14 
0.01965 0.08841410481 0.04503946175 10 
0.01995 0.06221136316 0.03642496808 13 
0.02025 0.08230438687 0.04355355249 12 
0.02055 0.09643019285 0.04453239192 17 
0.02085 0.08151677055 0.04045680181 14 
0.02115 0.08469979709 0.04137124286 18 
0.02145 0.126749464 0.05216452039 13 
0.02175 0.01423345465 0.004272759584 13 
0.02205 0.1951770234 0.07016214448 22 
0.02235 0.04011028385 0.02970609235 14 
0.02265 0.136103191 0.05728426269 16 
0.02295 0.08020048236 0.03767896447 14 
0.02325 0.1518804826 0.05626344936 28 
0.02355 0.08548223657 0.04066370271 16 
0.02385 0.08915130519 0.03725343185 16 
0.02415 0.09383555719 0.04579020644 14 
0.02445 0.04616275395 0.02107974586 18 
0.02475 0.008371616427 0.002625072605 20 
0.02505 0.1352487384 0.04951826147 27 
0.02535 0.03033137335 0.02385368405 17 
0.02565 0.04149352043 0.02619118225 23 
0.02595 0.08995867726 0.0376556243 30 
0.02625 0.02279927077 0.01464605331 11 
0.02655 0.04331039076 0.01771134017 23 
0.02685 0.1441407802 0.05148805163 28 
0.02715 0.04697578388 0.03099438442 15 
0.02745 0.05346579984 0.02817788688 18 
0.02775 0.0709141401 0.0330337309 25 
0.02805 0.04960243724 0.02246621711 25 
0.02835 0.02819019453 0.01843695871 20 
0.02865 0.08242451237 0.03415587555 20 
0.02895 0.08774510583 0.03862912013 23 
0.02925 0.09174019012 0.03967900471 26 
0.02955 0.06674576842 0.03042948191 29 
0.02985 0.06689181162 0.02616285411 20 
0.03015 0.07872118513 0.03387956645 23 
0.03045 0.02921732391 0.01374091255 19 
0.03075 0.08922317643 0.03563999443 24 
0.03105 0.09646255139 0.03716311802 25 
0.03135 0.01975106335 0.01315216949 19 
0.03165 0.09696014768 0.0384254413 24 
0.03195 0.06229221999 0.03172569659 23 
0.03225 0.06224143992 0.0218544873 30 
0.03255 0.04107012648 0.02247700961 21 
0.03285 0.03961814249 0.02112895292 20 
0.03315 0.04064735294 0.02271852016 20 
0.03345 0.04999004163 0.02428593914 23 
0.03375 0.03299845211 0.0163856383 29 
0.03405 0.1101145173 0.03565498908 32 
0.03435 0.007942438069 0.002992357654 20 
0.03465 0.06383419006 0.0264584318 26 
0.03495 0.03827568318 0.01982782186 26 
0.03525 0.07346165184 0.03068018939 36 
0.03555 0.02753144737 0.01712480861 23 
0.03585 0.02925198105 0.01644114135 29 
0.03615 0.04835227015 0.02135910841 28 
0.03645 0.03503184104 0.0176287145 28 
0.03675 0.02697964346 0.01757210018 20 
0.03705 0.03842010659 0.01935332553 25 
0.03735 0.04030625416 0.01880478607 23 
0.03765 0.01936722012 0.01413433132 20 
0.03795 0.02360201631 0.01264330088 24 
0.03825 0.05684639306 0.02550203276 41 
0.03855 0.08975344133 0.03152662236 24 
0.03885 0.04885220667 0.02209042859 32 
0.03915 0.06764764502 0.02619093309 28 
0.03945 0.03961816225 0.0185852038 25 
0.03975 0.0954474779 0.03072260885 35 
0.04005 0.03681195912 0.01837825836 25 
0.04035 0.02489640921 0.01468349938 32 
0.04065 0.0338668665 0.0154478949 28 
0.04095 0.02954018252 0.01749323675 31 
0.04125 0.03359272314 0.01428248361 25 
0.04155 0.03038090052 0.01421352206 19 
0.04185 0.01929346216 0.009263106282 31 
0.04215 0.03982843474 0.01834817849 34 
0.04245 0.0772889405 0.02711211753 37 
0.04275 0.03088621349 0.01353676924 29 
0.04305 0.03625940504 0.01572505248 26 
0.04335 0.05769770871 0.02032830761 44 
0.04365 0.03254367789 0.01570422745 23 
0.04395 0.03081432543 0.01653361908 39 
0.04425 0.02466125 0.01129807269 32 
0.04455 0.0317088572 0.01599387786 33 
0.04485 0.01000686774 0.003982404556 26 
0.04515 0.04304280652 0.01725626386 38 
0.04545 0.04831825928 0.01909926738 46 
0.04575 0.04415284825 0.0174202771 41 
0.04605 0.04119910976 0.01746810774 28 
0.04635 0.04163339218 0.018632786 26 
0.04665 0.05402831998 0.01958828609 38 
0.04695 0.03475501977 0.0139329242 39 
0.04725 0.02566830169 0.01211237526 40 
0.04755 0.03195588137 0.01451313891 38 
0.04785 0.02385908418 0.01103108023 34 
0.04815 0.0192814089 0.01096277305 38 
0.04845 0.03329300067 0.01577224823 36 
0.04875 0.02793259934 0.01399249172 30 
0.04905 0.03473811053 0.01532770451 32 
0.04935 0.03667097661 0.01520290292 27 
0.04965 0.02241063284 0.01159870433 36 
0.04995 0.03482707082 0.01364755778 50 
0.05025 0.02504651279 0.01131423342 44 
0.05055 0.002665874881 0.0007219013958 33 
0.05085 0.04799195899 0.01531053394 51 
0.05115 0.04842316327 0.01925875349 36 
0.05145 0.03529966523 0.01323407305 43 
0.05175 0.01650196934 0.00965846303 38 
0.05205 0.0332947626 0.01335194922 42 
0.05235 0.009718021351 0.007465796336 31 
0.05265 0.03116582131 0.01339911072 40 
0.05295 0.01932637704 0.009649571729 38 
0.05325 0.03671634736 0.01532189521 45 
0.05355 0.0105704304 0.006962632682 29 
0.05385 0.02318217795 0.01066936218 38 
0.05415 0.02164728604 0.01155364884 40 
0.05445 0.01083001114 0.005702335305 39 
0.05475 0.01239391343 0.006417293982 43 
0.05505 0.0157354526 0.008435274578 39 
0.05535 0.008416964733 0.00361825964 39 
0.05565 0.01958935675 0.01015552072 38 
0.05595 0.02043677813 0.008678452567 39 
0.05625 0.01862708239 0.009062349434 44 
0.05655 0.02143546977 0.01024007786 44 
0.05685 0.02514945777 0.009146869145 53 
0.05715 0.03152207357 0.01200621272 34 
0.05745 0.002599154794 0.001174139525 28 
0.05775 0.02188887247 0.008851857838 50 
0.05805 0.02972838745 0.01083515044 50 
0.05835 0.02302909483 0.009783533 46 
0.05865 0.0289726584 0.0109708608 54 
0.05895 0.0206033131 0.009794352556 36 
0.05925 0.03030537043 0.01125592229 49 
0.05955 0.01675315153 0.008428838128 49 
0.05985 0.007634564437 0.004591775186 46 
0.06015 0.00518799387 0.003096123922 31 
0.06045 0.01863237797 0.008220267604 39 
0.06075 0.01523805923 0.007621309667 48 
0.06105 0.02405309552 0.008841093054 54 
0.06135 0.01330265321 0.005592427389 59 
0.06165 0.02405311321 0.009979659441 48 
0.06195 0.01378223578 0.00518583519 61 
0.06225 0.025110018 0.008493707793 57 
0.06255 0.02687150275 0.01045386306 51 
0.06285 0.008890397776 0.00515116757 58 
0.06315 0.01844963625 0.008542258538 55 
0.06345 0.03407093434 0.01177269127 54 
0.06375 0.01348045788 0.006973449505 37 
0.06405 0.01540210718 0.006870165625 55 
0.06435 0.02131580077 0.008534194879 54 
0.06465 0.01040651748 0.004822825888 57 
0.06495 0.01943481488 0.008431456075 55 
0.06525 0.01895045539 0.007465731356 57 
0.06555 0.01459612704 0.006466318686 58 
0.06585 0.01652564795 0.007126964772 68 
0.06615 0.002191987627 0.0005034448646 46 
0.06645 0.01678189597 0.007481026574 57 
0.06675 0.01717366356 0.006854471518 47 
0.06705 0.01356499616 0.006517298676 44 
0.06735 0.0108985727 0.004933079097 56 
0.06765 0.01818194473 0.007432546316 52 
0.06795 0.01425201931 0.006206917657 48 
0.06825 0.01337496162 0.007058621246 53 
0.06855 0.01683576637 0.007008472883 66 
0.06885 0.02579261608 0.00883516644 55 
0.06915 0.01616714621 0.006897253238 42 
0.06945 0.01012797769 0.005194055085 61 
0.06975 0.01396722435 0.00622881124 60 
0.07005 0.02062179436 0.007503908075 51 
0.07035 0.006368780492 0.002976786961 57 
0.07065 0.01094468372 0.004710799416 57 
0.07095 0.007297167816 0.003112031078 44 
0.07125 0.01018875523 0.004509356604 40 
0.07155 0.01284073089 0.005099079554 51 
0.07185 0.004923594946 0.002684789134 40 
0.07215 0.009370350773 0.004458367352 53 
0.07245 0.01718529122 0.006674524626 56 
0.07275 0.007706809329 0.003684394281 41 
0.07305 0.0071157323 0.004194382288 51 
0.07335 0.01574780833 0.006130715807 58 
0.07365 0.008986412237 0.004326146995 54 
0.07395 0.004572358465 0.002079302948 48 
0.07425 0.009230617872 0.004294346789 65 
0.07455 0.006755563985 0.003360081735 54 
0.07485 0.006494588791 0.002760782699 63 
0.07515 0.00577558275 0.002879885688 63 
0.07545 0.004575596275 0.002842213104 66 
0.07575 0.006176595923 0.002880032952 60 
0.07605 0.0112642574 0.004565139744 54 
0.07635 0.001961397095 0.0007564917377 53 
0.07665 0.006796546541 0.003361629074 51 
0.07695 0.003835850185 0.00189440266 58 
0.07725 0.006507595228 0.003188494463 63 
0.07755 0.00949225416 0.004112419237 65 
0.07785 0.002275407545 0.000964455183 54 
0.07815 0.008200249402 0.003618299332 61 
0.07845 0.01590793488 0.005189917171 67 
0.07875 0.007823611185 0.003295825811 66 
0.07905 0.002076860275 0.001045434351 65 
0.07935 0.008836876158 0.00401542026 68 
0.07965 0.008370904258 0.00359836413 71 
0.07995 0.006010229586 0.002837720427 58 
0.08025 0.005188980594 0.003014855903 59 
0.08055 0.008514921607 0.003235562493 73 
0.08085 0.004400100886 0.002409661817 53 
0.08115 0.01084249823 0.004234195744 72 
0.08145 0.004787572665 0.002177827688 51 
0.08175 0.01257616151 0.004605782727 76 
0.08205 0.01239060368 0.004200184932 67 
0.08235 0.007268991588 0.003341430072 68 
0.08265 0.005012998272 0.002876424548 67 
0.08295 0.006634146425 0.002698191018 64 
0.08325 0.004649425177 0.00203701747 71 
0.08355 0.00434947502 0.001969956702 65 
0.08385 0.01204718395 0.004216401678 74 
0.08415 0.008228901059 0.003066888581 73 
0.08445 0.006391239299 0.002972968854 55 
0.08475 0.01185855913 0.003984642613 71 
0.08505 0.002420821355 0.001078334739 60 
0.08535 0.005705388412 0.002657367092 64 
0.08565 0.006311918813 0.002345762106 77 
0.08595 0.003726254958 0.001719811379 63 
0.08625 0.006491578477 0.002632077965 58 
0.08655 0.001808464878 0.0008824502939 58 
0.08685 0.001270421562 0.0004540611695 70 
0.08715 0.003771125918 0.001779292386 60 
0.08745 0.009185721279 0.003255096393 84 
0.08775 0.001481955378 0.000559869552 67 
0.08805 0.00169855475 0.0007302084781 65 
0.08835 0.006030581564 0.002234750792 73 
0.08865 0.002314295866 0.001504762975 61 
0.08895 0.002234316257 0.000894967878 56 
0.08925 0.007050604293 0.002771683546 57 
0.08955 0.001618302801 0.0007626360782 56 
0.08985 0.003883221301 0.001492532226 62 
0.09015 0.009205813356 0.003260923342 71 
0.09045 0.004589576008 0.002028131091 73 
0.09075 0.004200526236 0.001995668027 72 
0.09105 0.003491007021 0.001680818375 72 
0.09135 0.0007785235824 0.0001482240934 80 
0.09165 0.005331702602 0.00208131293 59 
0.09195 0.006631350524 0.002395947765 80 
0.09225 0.002053501686 0.0009770528927 67 
0.09255 0.004096358556 0.001631169048 64 
0.09285 0.002430464414 0.001241606077 58 
0.09315 0.001953363459 0.000733685663 71 
0.09345 0.005860485695 0.002187614217 65 
0.09375 0.002137473473 0.001142761716 80 
0.09405 0.005814875844 0.002309484699 67 
0.09435 0.004761496991 0.001974024246 69 
0.09465 0.002360098387 0.001055476061 88 
0.09495 0.00266055392 0.001277726832 76 
0.09525 0.00490616232 0.001834874396 79 
0.09555 0.004701016579 0.001609990914 77 
0.09585 0.004767641216 0.001699799701 69 
0.09615 0.003265171272 0.001420484387 63 
0.09645 0.002326228216 0.001142177855 65 
0.09675 0.003336471076 0.001464908611 64 
0.09705 0.002195443646 0.0007459507905 73 
0.09735 0.003219492315 0.001278925163 77 
0.09765 0.001920915663 0.0008815661255 82 
0.09795 0.003701096222 0.00147923993 87 
0.09825 0.00286249828 0.001185546994 84 
0.09855 0.003895105909 0.001525631701 88 
0.09885 0.001859842169 0.0007679403983 74 
0.09915 0.001550542057 0.0007360413641 67 
0.09945 0.003726629686 0.001384918419 77 
0.09975 0.002392879425 0.00111190103 88 
0.10005 0.00294458407 0.00130537066 69 
0.10035 0.004099157986 0.001493036125 91 
0.10065 0.001855388944 0.000805118211 75 
0.10095 0.001545321815 0.0007914907973 69 
0.10125 0.002339168505 0.001152987162 66 
0.10155 0.003513051878 0.001305404599 68 
0.10185 0.002221046489 0.0009248326495 68 
0.10215 0.002542203615 0.0008793232472 74 
0.10245 0.001859933992 0.0008248011006 83 
0.10275 0.002509116668 0.001007313013 78 
0.10305 0.003211064922 0.001131139395 81 
0.10335 0.001649187239 0.0007028365037 86 
0.10365 0.001912412446 0.0008518487527 71 
0.10395 0.002145971192 0.0008730868216 92 
0.10425 0.002330031036 0.0009427871302 76 
0.10455 0.00227677641 0.0008319130459 68 
0.10485 0.002198440496 0.0009270743891 77 
0.10515 0.001613207479 0.0006561119897 83 
0.10545 0.0005112041141 0.0002272466853 65 
0.10575 0.00193017653 0.0008615267721 77 
0.10605 0.001256227001 0.0005682020581 66 
0.10635 0.004154511861 0.00133209569 92 
0.10665 0.0008894626488 0.0004077485752 69 
0.10695 0.001985018605 0.0007416470879 90 
0.10725 0.001292782898 0.0006083690333 85 
0.10755 0.0008881286654 0.000467640978 76 
0.10785 0.001028909961 0.0004131484196 89 
0.10815 0.002307259804 0.0007697532832 80 
0.10845 0.001154734257 0.0006018108535 78 
0.10875 0.0009765749597 0.0003268436364 85 
0.10905 0.00284901411 0.0008851947512 73 
0.10935 0.001559721974 0.0005890834501 89 
0.10965 0.002325030947 0.0007840243132 101 
0.10995 0.0008403809956 0.0003515409647 83 
0.11025 0.001585706927 0.0005977847185 83 
0.11055 0.0009804064297 0.0003124095792 96 
0.11085 0.001434327593 0.0005233711646 96 
0.11115 0.001070643789 0.0004381704809 75 
0.11145 0.000397163098 0.0001557896873 76 
0.11175 0.0009153371188 0.0003904510268 71 
0.11205 0.0007931447328 0.0003675347143 103 
0.11235 0.0007009315016 0.0003036178773 64 
0.11265 0.00115124492 0.0004287806245 101 
0.11295 0.00143817994 0.0005301252691 78 
0.11325 0.0004860745515 0.0001629469299 90 
0.11355 0.001093872969 0.0004540072037 97 
0.11385 0.001164607483 0.0003853010887 85 
0.11415 0.001075261093 0.0003735949189 94 
0.11445 0.001401677443 0.0004889511004 88 
0.11475 0.0007405495452 0.0002973864946 104 
0.11505 0.0008013160062 0.0003046875919 90 
0.11535 0.0008225881428 0.0003279278772 89 
0.11565 0.0006887462895 0.0002859191214 91 
0.11595 0.001002384338 0.0003575183879 78 
0.11625 0.002170672096 0.0005898087564 95 
0.11655 0.0009080493949 0.0003214757768 105 
0.11685 0.0005899915026 0.0002225435235 85 
0.11715 0.001267858379 0.0004264044663 99 
0.11745 0.0006400732591 0.0002571240362 90 
0.11775 0.0004796589627 0.0002045991927 90 
0.11805 0.0008717384543 0.0003126163128 99 
0.11835 0.0006629112979 0.0002260458652 96 
0.11865 0.0004611986032 0.0002095230482 82 
0.11895 0.0005043977694 0.000168125954 92 
0.11925 0.0004179208023 0.0001589064977 86 
0.11955 0.0004516040773 0.000165679679 84 
0.11985 0.0002716880119 0.000111509706 96 
0.12015 0.0003324163319 0.0001436096192 90 
0.12045 0.0003675885515 0.000165884116 76 
0.12075 0.0003933987527 0.0001440807611 95 
0.12105 0.0004764650814 0.0001789188223 93 
0.12135 0.0005422566279 0.0001771400562 102 
0.12165 0.000554950687 0.0001706170815 106 
0.12195 0.0004483546386 0.0001556153974 98 
0.12225 0.0005479008605 0.0001937364229 93 
0.12255 0.0003478828055 0.0001139440872 82 
0.12285 0.000197117089 4.942169921e-05 101 
0.12315 0.0008538253481 0.0002384799135 97 
0.12345 0.0002959265321 0.0001087328178 95 
0.12375 0.0003781725052 0.0001416310913 92 
0.12405 0.0002090142216 7.063907236e-05 95 
0.12435 0.000362883154 0.0001453209099 71 
0.12465 0.0001479674514 2.973961339e-05 90 
0.12495 0.0002586471735 8.338812951e-05 105 
0.12525 0.0002890218616 9.912351e-05 94 
0.12555 0.0002664633974 7.490414796e-05 108 
0.12585 0.0002417530526 8.210351711e-05 70 
0.12615 0.0002175099061 6.858422545e-05 102 
0.12645 0.0001338071847 2.220477129e-05 108 
0.12675 0.0002237673434 8.066511765e-05 101 
0.12705 0.0001628634973 5.852039116e-05 92 
0.12735 0.0003234387968 9.254852435e-05 97 
0.12765 0.0001310365411 3.831359281e-05 101 
0.12795 0.0001996684184 5.830472878e-05 96 
0.12825 0.0003217277188 9.131478945e-05 103 
0.12855 0.0002460644672 7.705687484e-05 93 
0.12885 0.0001526130175 4.82593583e-05 103 
0.12915 0.0001670668625 5.385373384e-05 94 
0.12945 8.094880973e-05 2.686808704e-05 94 
0.12975 0.0002922389471 7.918468891e-05 115 
0.13005 0.000164542183 4.766600958e-05 91 
0.13035 0.0001499031379 4.291952056e-05 109 
0.13065 0.0001703563461 4.728492915e-05 97 
0.13095 0.0001147273576 3.811109251e-05 88 
0.13125 0.0001334332993 3.411153706e-05 113 
0.13155 0.0001110673144 3.359118499e-05 89 
0.13185 0.0001482990948 4.387947823e-05 108 
0.13215 0.0001121313405 2.185533911e-05 100 
0.13245 0.0001279369483 3.433646101e-05 114 
0.13275 8.217293116e-05 2.282543763e-05 90 
0.13305 8.464990705e-05 1.974257942e-05 101 
0.13335 0.0001171014912 2.611937035e-05 117 
0.13365 9.870671465e-05 2.409700686e-05 97 
0.13395 9.629031963e-05 1.830478739e-05 119 
0.13425 5.943896851e-05 1.047517703e-05 83 
0.13455 9.94721528e-05 2.094594868e-05 100 
0.13485 6.529256095e-05 1.125292984e-05 95 
0.13515 0.0001025196394 1.659657386e-05 118 
0.13545 0.0001123123875 2.64705031e-05 109 
0.13575 8.905842654e-05 1.613569973e-05 107 
0.13605 5.766862115e-05 9.534078263e-06 100 
0.13635 7.910799411e-05 1.360277678e-05 97 
0.13665 5.34086485e-05 9.295225325e-06 93 
0.13695 7.19876752e-05 1.10727541e-05 105 
0.13725 8.356553512e-05 1.268851837e-05 117 
0.13755 7.315587722e-05 1.081840106e-05 116 
0.13785 8.49804054e-05 1.118873147e-05 132 
0.13815 7.450455949e-05 1.086649756e-05 102 
0.13845 6.922823409e-05 9.510962289e-06 102 
0.13875 7.09967267e-05 1.074870982e-05 115 
0.13905 5.653030759e-05 8.177997797e-06 107 
0.13935 5.800955252e-05 8.489188731e-06 108 
0.13965 5.020273339e-05 6.945645672e-06 113 
0.13995 3.581916895e-05 6.112430685e-06 94 
0.14025 4.64053683e-05 7.471474307e-06 96 
0.14055 4.058697789e-05 6.507234519e-06 113 
0.14085 4.104440797e-05 5.999375414e-06 114 
0.14115 5.068480464e-05 7.45763263e-06 112 
0.14145 3.079081743e-05 4.975071993e-06 118 
0.14175 3.032597722e-05 5.03257724e-06 115 
0.14205 3.617509221e-05 6.061912156e-06 111 
0.14235 3.971381619e-05 6.322492328e-06 106 
0.14265 2.441670381e-05 4.317356321e-06 91 
0.14295 2.929466429e-05 4.818145973e-06 111 
0.14325 2.481465673e-05 4.183637907e-06 94 
0.14355 3.388357936e-05 5.487427023e-06 114 
0.14385 3.238065216e-05 5.326901147e-06 110 
0.14415 2.697364166e-05 4.779871206e-06 98 
0.14445 3.734201762e-05 5.330653612e-06 114 
0.14475 3.742139094e-05 5.491975951e-06 110 
0.14505 3.770628102e-05 6.383264579e-06 92 
0.14535 3.925962065e-05 5.874932611e-06 131 
0.14565 3.768445556e-05 6.153111847e-06 101 
0.14595 2.154267639e-05 3.921641926e-06 90 
0.14625 4.369936662e-05 6.327877616e-06 119 
0.14655 4.576143087e-05 7.546301616e-06 114 
0.14685 5.013324735e-05 7.015377028e-06 135 
0.14715 4.612717029e-05 9.657801801e-06 117 
0.14745 4.315828321e-05 7.22042531e-06 115 
0.14775 3.594371705e-05 6.012266757e-06 101 
0.14805 5.86984598e-05 1.121164708e-05 101 
0.14835 5.141293794e-05 1.193915067e-05 99 
0.14865 6.762857014e-05 1.496688043e-05 131 
0.14895 9.07327193e-05 1.812036159e-05 140 
0.14925 4.797105443e-05 9.357510612e-06 111 
0.14955 4.577664267e-05 9.790286812e-06 103 
0.14985 0.0001053729881 2.306496933e-05 126 
0.15015 7.86876422e-05 1.706421082e-05 102 
0.15045 5.523208193e-05 1.441711166e-05 112 
0.15075 4.666963766e-05 1.01553882e-05 108 
0.15105 5.423091858e-05 1.064539755e-05 111 
0.15135 4.639111064e-05 1.319589018e-05 102 
0.15165 5.140439298e-05 1.221748284e-05 104 
0.15195 4.945100767e-05 1.230444906e-05 110 
0.15225 7.35156607e-05 2.005253101e-05 124 
0.15255 7.086902079e-05 1.761169753e-05 130 
0.15285 7.110251172e-05 2.447271509e-05 124 
0.15315 4.885725398e-05 1.154731312e-05 109 
0.15345 4.753559956e-05 1.432119287e-05 98 
0.15375 8.183730698e-05 2.452323782e-05 110 
0.15405 0.0001012278138 3.331145889e-05 111 
0.15435 5.991966511e-05 2.053972713e-05 103 
0.15465 0.0001069822013 3.073766537e-05 122 
0.15495 6.985365308e-05 2.285909014e-05 151 
0.15525 7.603439205e-05 2.643885452e-05 128 
0.15555 9.420457199e-05 3.504856154e-05 127 
0.15585 0.0001068132367 3.649001267e-05 128 
0.15615 4.969605141e-05 1.611963718e-05 126 
0.15645 0.0001488536715 4.807431221e-05 112 
0.15675 5.44675953e-05 2.919498798e-05 128 
0.15705 2.578481995e-05 4.557174583e-06 97 
0.15735 0.0001035228047 3.161291071e-05 126 
0.15765 8.067402124e-05 2.674894538e-05 120 
0.15795 7.621038942e-05 3.005260793e-05 118 
0.15825 0.0001013332512 4.037760178e-05 136 
0.15855 0.000111680929 3.444302578e-05 114 
0.15885 5.700909108e-05 2.105141441e-05 112 
0.15915 0.0001175508902 4.233921965e-05 105 
0.15945 9.195176446e-05 4.318651622e-05 120 
0.15975 0.0001329837391 4.236459951e-05 128 
0.16005 0.0001209042242 4.863575542e-05 111 
0.16035 9.977758185e-05 4.214927834e-05 112 
0.16065 0.000109943404 4.291466894e-05 126 
0.16095 0.0001657796975 5.961012962e-05 121 
0.16125 5.615979311e-05 1.598489764e-05 112 
0.16155 2.368631436e-05 4.258519135e-06 114 
0.16185 0.0002471427484 7.065708492e-05 135 
0.16215 0.0001737284922 6.101996834e-05 125 
0.16245 0.0002223824586 6.990026681e-05 157 
0.16275 0.0001684914604 5.901342878e-05 129 
0.16305 0.0001269404903 4.639178633e-05 137 
0.16335 0.0001679708168 6.534658471e-05 113 
0.16365 5.787279465e-05 3.254661765e-05 104 
0.16395 0.0001868026552 7.965758029e-05 114 
0.16425 0.0002004583831 7.453339444e-05 115 
0.16455 0.0001396462887 4.541292093e-05 125 
0.16485 0.00015639791 5.828336253e-05 136 
0.16515 0.0002439016157 9.064928479e-05 137 
0.16545 7.037449762e-05 3.129712044e-05 139 
0.16575 9.95993404e-05 4.825124732e-05 131 
0.16605 0.0001175831573 5.014422379e-05 122 
0.16635 0.0001920432925 6.676371175e-05 127 
0.16665 0.0002226226941 8.095892401e-05 117 
0.16695 0.0001634645784 6.895464532e-05 123 
0.16725 0.0001954010213 7.608021221e-05 132 
0.16755 0.0002430757723 8.653287901e-05 142 
0.16785 0.0001854613357 7.78768997e-05 118 
0.16815 0.000164776258 7.046693904e-05 125 
0.16845 0.0001441364412 6.690745268e-05 135 
0.16875 3.224769443e-05 9.819689915e-06 125 
0.16905 0.0002564119497 9.300077297e-05 108 
0.16935 8.548771031e-05 4.62949777e-05 111 
0.16965 7.941969431e-05 4.190565059e-05 117 
0.16995 7.288972405e-05 4.437907211e-05 118 
0.17025 0.0002433611342 8.94554832e-05 138 
0.17055 0.0001514532343 6.98107068e-05 127 
0.17085 0.0001609320594 6.880114612e-05 126 
0.17115 0.0001766359323 7.261815498e-05 134 
0.17145 0.0001908389873 8.09740235e-05 122 
0.17175 0.00021943484 9.000175364e-05 135 
0.17205 0.0001926540129 8.616916638e-05 125 
0.17235 0.0002843032112 0.0001006174221 153 
0.17265 0.0002641326923 9.678023436e-05 148 
0.17295 0.0001431449008 6.448205473e-05 118 
0.17325 0.0001255844974 6.315303539e-05 125 
0.17355 0.0002162915249 8.758639135e-05 134 
0.17385 0.0002712871656 9.598089163e-05 146 
0.17415 8.41487735e-05 4.571686671e-05 122 
0.17445 4.863974957e-05 2.052762446e-05 131 
0.17475 0.0002126112512 8.453927456e-05 131 
0.17505 9.989150934e-05 4.876396413e-05 131 
0.17535 0.0003190859023 0.0001202020216 142 
0.17565 0.0001339313901 5.404840102e-05 137 
0.17595 0.0001888762197 8.796995963e-05 145 
0.17625 0.0001929995017 8.317199783e-05 143 
0.17655 0.0002977005567 0.0001119146655 135 
0.17685 0.0003599522082 0.0001221821241 133 
0.17715 0.0001322855209 6.739388157e-05 134 
0.17745 0.0002137711139 8.862313023e-05 123 
0.17775 0.0002070608384 9.235240154e-05 124 
0.17805 0.000213251234 9.437444275e-05 154 
0.17835 6.73962483e-05 2.895066559e-05 129 
0.17865 0.0001358963547 6.657619591e-05 132 
0.17895 0.0002631761887 0.0001090475472 138 
0.17925 0.0001592939952 6.949585719e-05 140 
0.17955 0.0001255184689 6.45068015e-05 109 
0.17985 0.0001500865286 6.18950997e-05 143 
0.18015 7.299625048e-05 2.833964138e-05 137 
0.18045 0.0002604282509 0.0001038677728 136 
0.18075 0.0002100889961 9.540141687e-05 124 
0.18105 0.0001160351461 6.673911335e-05 121 
0.18135 0.0001127752994 6.712461782e-05 141 
0.18165 0.0001103478821 5.522465836e-05 132 
0.18195 9.881826144e-05 5.083129362e-05 139 
0.18225 0.0002076015188 0.0001007724784 101 
0.18255 0.0001242202642 6.488343212e-05 137 
0.18285 0.0003075819035 0.0001156495804 138 
0.18315 0.0002268470024 0.000104038547 149 
0.18345 0.0001977095282 9.102306997e-05 148 
0.18375 0.0003101222439 0.0001186259804 144 
0.18405 0.0003755574711 0.0001351423006 136 
0.18435 0.0001502809172 6.021348925e-05 170 
0.18465 0.000116369395 4.936504159e-05 145 
0.18495 0.000137372634 7.210289541e-05 136 
0.18525 0.0004179208644 0.0001380497399 152 
0.18555 0.0001519031169 7.286160352e-05 136 
0.18585 0.0001440684612 7.458971518e-05 139 
0.18615 8.900201982e-05 4.362194857e-05 138 
0.18645 0.0001806386413 9.392909992e-05 134 
0.18675 0.0001419980159 6.684023313e-05 117 
0.18705 8.354086597e-05 5.383150789e-05 129 
0.18735 0.0001919043414 8.929025565e-05 144 
0.18765 0.000217915464 0.000102482957 134 
0.18795 0.0001782923923 8.804303804e-05 136 
0.18825 0.0001388556713 6.93662083e-05 144 
0.18855 7.296156611e-05 3.507174617e-05 132 
0.18885 0.0002019763505 9.46523732e-05 160 
0.18915 0.000316194131 0.0001294049461 141 
0.18945 0.0002273320052 0.0001086162913 155 
0.18975 0.0002185814018 9.793467264e-05 136 
0.19005 0.0001659494897 8.407603143e-05 149 
0.19035 0.0002776221456 0.000119703479 131 
0.19065 0.0002294122941 0.0001002257234 140 
0.19095 0.000117187896 5.533165064e-05 171 
0.19125 0.0002674080881 0.0001113088311 149 
0.19155 3.953837873e-05 1.776507138e-05 118 
0.19185 0.0001197690784 4.839643903e-05 146 
0.19215 0.0003711279499 0.000141172264 157 
0.19245 0.000190346785 8.736622771e-05 151 
0.19275 6.586886743e-05 4.228655616e-05 121 
0.19305 0.0003444986892 0.0001240279189 147 
0.19335 0.0001344485852 7.163951388e-05 141 
0.19365 0.0002103984296 9.520030013e-05 148 
0.19395 0.0002448840605 0.0001033586076 148 
0.19425 0.0001643286373 8.69926589e-05 127 
0.19455 0.0002334880505 8.860141125e-05 146 
0.19485 0.0003400737663 0.0001308712689 160 
0.19515 0.0001000396033 6.529428491e-05 158 
0.19545 0.000302293551 0.000104639734 145 
0.19575 0.0001926814076 8.472071125e-05 133 
0.19605 0.0003066033115 0.0001198098163 150 
0.19635 0.0002185376377 9.469980649e-05 144 
0.19665 0.0003437311364 0.0001204858849 149 
0.19695 0.00014437773 8.509807741e-05 165 
0.19725 0.0002891332285 0.0001092773498 166 
0.19755 8.171103926e-05 4.253847037e-05 145 
0.19785 0.000238278881 0.0001011539255 143 
0.19815 8.301543484e-05 5.135593704e-05 145 
0.19845 0.0002032226069 9.169947257e-05 133 
0.19875 8.359767955e-05 5.98075318e-05 150 
0.19905 0.0002631590946 0.0001068613871 143 
0.19935 0.0001170765298 6.919254812e-05 159 
0.19965 0.0004003563117 0.0001342125023 153 
0.19995 9.63350007e-05 5.8021051e-05 145 
0.20025 0.0001565742181 7.625877822e-05 173 
0.20055 0.0001698736317 8.150191587e-05 154 
0.20085 0.0002291511477 9.486764377e-05 148 
0.20115 0.0001329977773 6.051202096e-05 128 
0.20145 0.0002919387367 0.0001152990899 153 
0.20175 0.000118618989 6.622360921e-05 135 
0.20205 0.000365034862 0.0001183700737 146 
0.20235 0.000204926277 8.988491849e-05 143 
0.20265 0.0002361552822 9.826044053e-05 172 
0.20295 0.0001092784917 6.331743757e-05 147 
0.20325 0.0001609953667 8.006781067e-05 141 
0.20355 0.0001644284474 8.217587449e-05 159 
0.20385 0.0001404616581 7.164606174e-05 137 
0.20415 4.541868924e-05 2.030315715e-05 143 
0.20445 0.0001445847558 6.260951617e-05 159 
0.20475 0.0001857773166 8.51767334e-05 152 
0.20505 0.0002134207908 9.299122818e-05 151 
0.20535 9.883445286e-05 5.730084758e-05 162 
0.20565 9.703591398e-05 5.420810419e-05 152 
0.20595 0.0001825932514 8.341071234e-05 146 
0.20625 1.75691429e-05 5.921224366e-06 135 
0.20655 0.0001356710292 6.547298614e-05 141 
0.20685 0.0002179429701 8.594428668e-05 142 
0.20715 0.0001548847358 7.194287448e-05 160 
0.20745 0.0001662343943 7.777729644e-05 149 
0.20775 8.244638542e-05 4.66404873e-05 155 
0.20805 0.0002922850755 0.0001091084617 147 
0.20835 0.0001030791596 4.906963063e-05 167 
0.20865 0.0001084455542 5.286160493e-05 156 
0.20895 0.0002428291451 9.619144159e-05 170 
0.20925 0.0002619475293 8.993554892e-05 152 
0.20955 0.0002236305167 8.944290971e-05 137 
0.20985 0.0002210346402 8.475543072e-05 166 
0.21015 0.0001431159359 6.334067524e-05 151 
0.21045 0.0002203104614 9.066451543e-05 159 
0.21075 0.0001683848344 7.040802313e-05 158 
0.21105 0.0002063676193 7.663679429e-05 156 
0.21135 9.000304477e-05 4.459861531e-05 173 
0.21165 0.0001491186879 6.451309033e-05 167 
0.21195 6.061050946e-05 3.035496717e-05 165 
0.21225 0.0001435091201 6.800113422e-05 207 
0.21255 0.0001233490094 4.22655362e-05 176 
0.21285 0.0001487515291 6.37618263e-05 168 
0.21315 0.0001109744828 5.863746625e-05 169 
0.21345 0.0001338450254 5.977661293e-05 176 
0.21375 0.000225952119 8.263560565e-05 159 
0.21405 0.0002361175905 7.854967786e-05 173 
0.21435 0.0001295894754 5.448962033e-05 184 
0.21465 0.0001094101335 5.006964266e-05 161 
0.21495 0.0002118947892 7.937503478e-05 176 
0.21525 0.0001308088904 5.410293192e-05 160 
0.21555 9.718951323e-05 4.35221536e-05 171 
0.21585 0.0001685430899 7.043664011e-05 188 
0.21615 7.881305642e-05 3.811789723e-05 165 
0.21645 6.777340774e-05 3.723580328e-05 174 
0.21675 0.0001460733995 6.184210694e-05 168 
0.21705 0.0001231047117 5.465498528e-05 138 
0.21735 9.995254877e-05 4.719068958e-05 163 
0.21765 9.125317668e-05 4.888880598e-05 150 
0.21795 0.0001979287376 6.999347931e-05 179 
0.21825 0.0001452815216 5.790010205e-05 164 
0.21855 4.695007262e-05 2.832899316e-05 135 
0.21885 0.0001027914665 4.713072984e-05 175 
0.21915 6.558611135e-05 3.316071099e-05 164 
0.21945 7.387821283e-05 3.217993796e-05 158 
0.21975 7.672228006e-05 3.985229993e-05 160 
0.22005 9.97801672e-05 4.135762521e-05 170 
0.22035 5.900494439e-05 3.209014219e-05 152 
0.22065 2.662743162e-05 1.26618078e-05 183 
0.22095 0.000127580268 5.08538579e-05 191 
0.22125 0.0001520334824 5.294631131e-05 179 
0.22155 0.0001075218394 4.315902767e-05 151 
0.22185 8.491124503e-05 3.800356747e-05 193 
0.22215 0.0001462160854 5.143054817e-05 192 
0.22245 5.959891392e-05 2.763301812e-05 161 
0.22275 0.0001430101512 5.154938032e-05 187 
0.22305 0.0001509864515 5.283402244e-05 166 
0.22335 0.0001068886625 3.844460814e-05 187 
0.22365 8.955266629e-05 3.853796446e-05 203 
0.22395 4.231343286e-05 2.220461301e-05 174 
0.22425 6.316637945e-05 3.356604867e-05 195 
0.22455 0.0001309849233 4.791056462e-05 185 
0.22485 8.794714525e-05 3.91748871e-05 179 
0.22515 3.737949839e-05 1.922764537e-05 160 
0.22545 6.445723676e-05 3.116059948e-05 163 
0.22575 0.0001250672152 4.672872902e-05 185 
0.22605 0.0001075501977 4.268884059e-05 171 
0.22635 0.0001237444856 4.675603325e-05 186 
0.22665 3.401639265e-05 1.350892484e-05 182 
0.22695 0.0001397712646 3.95859307e-05 194 
0.22725 8.139206456e-05 3.632353066e-05 183 
0.22755 3.308245401e-05 1.540844288e-05 170 
0.22785 0.000102547179 3.85357361e-05 163 
0.22815 6.606975227e-05 3.249717822e-05 172 
0.22845 6.335058215e-05 2.792386811e-05 156 
0.22875 0.0001036406405 3.74900895e-05 164 
0.22905 9.690822817e-05 3.352038608e-05 187 
0.22935 7.473630024e-05 2.736081047e-05 166 
0.22965 4.292058922e-05 2.022508716e-05 184 
0.22995 8.641104117e-05 3.154724937e-05 172 
0.23025 2.319275883e-05 1.19403821e-05 163 
0.23055 6.275200754e-05 2.440227057e-05 159 
0.23085 6.257427416e-05 2.736605034e-05 194 
0.23115 3.770506131e-05 2.151918603e-05 163 
0.23145 4.457214398e-05 1.688282339e-05 170 
0.23175 2.811131621e-05 1.880684821e-05 165 
0.23205 5.334598069e-05 2.396490158e-05 185 
0.23235 3.136085841e-05 1.593724583e-05 194 
0.23265 4.647775716e-05 2.18445242e-05 196 
0.23295 3.460249237e-05 1.763162677e-05 187 
0.23325 9.049448076e-05 3.029218974e-05 197 
0.23355 7.35863264e-05 2.576033143e-05 174 
0.23385 3.89214732e-05 1.955828691e-05 174 
0.23415 3.548358697e-05 1.928339451e-05 179 
0.23445 1.543332578e-05 6.685820065e-06 163 
0.23475 3.717763305e-05 1.418566123e-05 188 
0.23505 6.004040823e-05 2.308562009e-05 176 
0.23535 3.343164576e-05 1.38117538e-05 197 
0.23565 5.43728067e-05 2.146844264e-05 170 
0.23595 2.282121127e-05 1.128745296e-05 175 
0.23625 8.534815351e-05 2.583685941e-05 158 
0.23655 5.118013688e-05 2.163874095e-05 186 
0.23685 5.186525271e-05 1.96655403e-05 158 
0.23715 4.314067834e-05 1.747007593e-05 192 
0.23745 3.358737823e-05 1.569757749e-05 163 
0.23775 2.192585796e-05 1.06566278e-05 173 
0.23805 2.898434317e-05 1.032350786e-05 175 
0.23835 5.116262e-05 1.802473495e-05 176 
0.23865 2.98869908e-05 1.056289785e-05 207 
0.23895 1.714817691e-05 8.38705063e-06 167 
0.23925 1.608659957e-05 6.642973494e-06 167 
0.23955 2.42723381e-05 1.084812515e-05 182 
0.23985 3.453521429e-05 1.316104885e-05 170 
0.24015 8.859699497e-06 3.523524605e-06 176 
0.24045 2.768947062e-05 1.167643236e-05 165 
0.24075 1.310955241e-05 4.763708118e-06 162 
0.24105 2.608108503e-05 1.082663072e-05 175 
0.24135 2.648480695e-05 1.182942673e-05 195 
0.24165 1.775220135e-05 8.652263279e-06 174 
0.24195 2.092567106e-05 8.126671717e-06 175 
0.24225 2.787334835e-05 9.27260618e-06 190 
0.24255 2.50328524e-05 1.107306992e-05 153 
0.24285 2.556292671e-05 9.226956951e-06 164 
0.24315 1.291664386e-05 4.336665963e-06 176 
0.24345 1.378604909e-05 6.933149264e-06 199 
0.24375 9.474948469e-06 5.587315273e-06 162 
0.24405 2.013516442e-05 6.910481359e-06 186 
0.24435 1.74821638e-05 7.300889164e-06 187 
0.24465 2.203085734e-05 8.816978052e-06 167 
0.24495 1.636206916e-05 6.168942058e-06 178 
0.24525 8.498752685e-06 3.604052865e-06 187 
0.24555 1.51666776e-05 4.717608796e-06 179 
0.24585 8.023076177e-06 3.379559859e-06 183 
0.24615 1.170626713e-05 3.904023057e-06 192 
0.24645 8.705459324e-06 4.879636763e-06 172 
0.24675 5.723215294e-06 2.081843131e-06 192 
0.24705 1.898228862e-05 7.384195098e-06 205 
0.24735 6.383507446e-06 3.267206565e-06 211 
0.24765 3.926625247e-06 1.125027573e-06 178 
0.24795 2.006357741e-05 7.179740429e-06 199 
0.24825 1.034974009e-05 3.440507004e-06 213 
0.24855 1.321492084e-05 3.987243019e-06 190 
0.24885 8.957911713e-06 3.447521942e-06 197 
0.24915 6.100321411e-06 2.221383161e-06 167 
0.24945 4.524025955e-06 1.445634955e-06 184 
0.24975 9.493673921e-06 3.422686411e-06 195 
0.25005 6.910290451e-06 3.203053939e-06 195 
0.25035 7.4591263e-06 2.643192047e-06 180 
0.25065 4.366306672e-06 1.119188542e-06 198 
0.25095 9.388753422e-06 3.433958464e-06 175 
0.25125 7.917770973e-06 2.947367243e-06 176 
0.25155 4.115652854e-06 8.83125506e-07 202 
0.25185 5.296214194e-06 1.846471942e-06 198 
0.25215 4.568255465e-06 1.301671776e-06 221 
0.25245 6.441295765e-06 2.077016463e-06 216 
0.25275 5.793709791e-06 1.591933783e-06 190 
0.25305 4.548072074e-06 2.142397246e-06 166 
0.25335 2.920708359e-06 7.374147913e-07 169 
0.25365 1.92326477e-06 3.469785172e-07 188 
0.25395 5.528745992e-06 2.005039764e-06 198 
0.25425 6.2282941e-06 2.176148267e-06 186 
0.25455 3.905485076e-06 1.539796983e-06 197 
0.25485 3.541446682e-06 8.540727341e-07 195 
0.25515 2.999531501e-06 6.873762549e-07 183 
0.25545 2.184876056e-06 6.440100499e-07 186 
0.25575 2.514791016e-06 6.554565629e-07 181 
0.25605 1.908752158e-06 3.0203571e-07 193 
0.25635 3.25707561e-06 8.83494305e-07 211 
0.25665 3.029101982e-06 1.034026386e-06 213 
0.25695 2.282979272e-06 6.550809967e-07 197 
0.25725 1.661129532e-06 2.47040022e-07 183 
0.25755 2.200250642e-06 8.579697236e-07 172 
0.25785 2.912288904e-06 7.94915037e-07 223 
0.25815 1.639249211e-06 4.561917853e-07 190 
0.25845 1.801311964e-06 4.845162022e-07 211 
0.25875 1.72597744e-06 3.719008471e-07 208 
0.25905 1.259847347e-06 1.436369986e-07 199 
0.25935 1.360090521e-06 2.612106537e-07 178 
0.25965 1.992242793e-06 4.445432902e-07 193 
0.25995 9.776688441e-07 1.226913028e-07 185 
0.26025 1.022314839e-06 1.10499168e-07 191 
0.26055 1.306733217e-06 2.189865273e-07 194 
0.26085 1.315031446e-06 2.140208256e-07 190 
0.26115 9.900871123e-07 1.632095186e-07 186 
0.26145 1.662175556e-06 2.717376349e-07 233 
0.26175 1.444181808e-06 2.113007986e-07 190 
0.26205 1.187948914e-06 1.220763804e-07 201 
0.26235 1.025722748e-06 1.393172679e-07 191 
0.26265 9.640653139e-07 1.421761708e-07 195 
0.26295 1.76166883e-06 4.833286249e-07 218 
0.26325 1.095975989e-06 1.188345953e-07 217 
0.26355 1.527452406e-06 3.191958603e-07 196 
0.26385 2.723191299e-06 9.53052696e-07 181 
0.26415 1.552315463e-06 4.52844803e-07 198 
0.26445 1.202746681e-06 1.290928941e-07 233 
0.26475 1.630841246e-06 2.50010452e-07 226 
0.26505 1.21464015e-06 1.862741345e-07 208 
0.26535 1.609900711e-06 2.807472057e-07 211 
0.26565 1.475995124e-06 3.353917164e-07 199 
0.26595 1.749945614e-06 3.676495659e-07 222 
0.26625 1.842016125e-06 4.058510335e-07 216 
0.26655 2.584828823e-06 9.403715146e-07 211 
0.26685 1.452088548e-06 3.117785893e-07 209 
0.26715 4.509268703e-06 1.40565848e-06 219 
0.26745 4.370546661e-06 1.802689391e-06 177 
0.26775 1.867189952e-06 6.325639851e-07 210 
0.26805 3.352654138e-06 1.119500642e-06 234 
0.26835 4.002211078e-06 1.370231737e-06 182 
0.26865 2.84004443e-06 1.550879153e-06 210 
0.26895 3.992542735e-06 1.755060021e-06 220 
0.26925 3.566957514e-06 1.673527337e-06 190 
0.26955 3.898259354e-06 1.838897414e-06 205 
0.26985 7.058012065e-06 2.663936045e-06 194 
0.27015 4.738112752e-06 1.832897782e-06 199 
0.27045 6.289891867e-06 2.692374812e-06 222 
0.27075 4.223069449e-06 1.818944308e-06 206 
0.27105 5.222155535e-06 2.276995712e-06 216 
0.27135 7.852492477e-06 2.794572586e-06 216 
0.27165 8.569334457e-06 3.647642722e-06 210 
0.27195 5.504574396e-06 2.45467388e-06 197 
0.27225 7.667506338e-06 2.801703839e-06 223 
0.27255 2.480031238e-06 1.578303224e-06 216 
0.27285 5.588975253e-06 2.577540029e-06 196 
0.27315 6.266185736e-06 3.412434767e-06 220 
0.27345 7.444668575e-06 2.613870753e-06 197 
0.27375 4.799084595e-06 1.778758701e-06 233 
0.27405 7.021705306e-06 3.668117695e-06 207 
0.27435 8.36151847e-06 3.415023673e-06 205 
0.27465 3.910065927e-06 2.479520914e-06 185 
0.27495 4.687614066e-06 1.978248494e-06 232 
0.27525 9.443294042e-06 3.817246949e-06 217 
0.27555 5.346001399e-06 2.593221958e-06 197 
0.27585 1.187248794e-05 5.082456877e-06 202 
0.27615 5.147519881e-06 2.849462718e-06 207 
0.27645 3.372849345e-06 1.403520293e-06 216 
0.27675 1.790349993e-05 5.893224069e-06 206 
0.27705 9.976984053e-06 5.441591638e-06 191 
0.27735 1.518982328e-05 5.311939333e-06 213 
0.27765 8.506952868e-06 3.666466012e-06 223 
0.27795 1.039341351e-05 4.931049645e-06 216 
0.27825 1.353910569e-05 5.073655217e-06 211 
0.27855 9.785754681e-06 4.202348157e-06 214 
0.27885 7.364473431e-06 3.308648652e-06 215 
0.27915 1.270589597e-05 4.838937501e-06 199 
0.27945 7.170033171e-06 4.576417899e-06 200 
0.27975 1.153227638e-05 4.342138488e-06 209 
0.28005 1.393760823e-05 6.148501057e-06 215 
0.28035 1.536931129e-05 6.750657089e-06 197 
0.28065 2.056711844e-05 9.012949868e-06 224 
0.28095 6.259069897e-06 3.44587918e-06 209 
0.28125 9.727056919e-06 4.760302832e-06 225 
0.28155 2.104760542e-05 8.400980314e-06 201 
0.28185 1.18541887e-05 5.309393894e-06 206 
0.28215 4.091334675e-06 1.459617069e-06 228 
0.28245 1.917137507e-05 8.0613208e-06 213 
0.28275 1.307346412e-05 7.149215213e-06 191 
0.28305 1.71827055e-05 7.713583379e-06 225 
0.28335 1.050222225e-05 5.273132264e-06 201 
0.28365 1.045963008e-05 5.398240971e-06 242 
0.28395 1.897609458e-05 9.353899497e-06 198 
0.28425 1.500872933e-05 6.517443104e-06 211 
0.28455 1.792851216e-05 7.369204749e-06 229 
0.28485 2.671259827e-05 1.094974685e-05 197 
0.28515 2.483997868e-05 1.008561476e-05 223 
0.28545 2.915218521e-05 1.004520266e-05 234 
0.28575 1.592089999e-05 7.576648428e-06 214 
0.28605 1.558340114e-05 7.600999182e-06 235 
0.28635 2.101628867e-05 9.025540998e-06 208 
0.28665 8.330469299e-06 4.974570705e-06 228 
0.28695 1.693220865e-05 7.547410782e-06 212 
0.28725 2.228824184e-05 1.020528033e-05 240 
0.28755 1.687387756e-05 8.680152447e-06 207 
0.28785 8.39987098e-06 6.288592273e-06 228 
0.28815 1.412590542e-05 6.796547923e-06 196 
0.28845 6.307942796e-06 3.287276744e-06 204 
0.28875 1.110934981e-05 6.567452374e-06 201 
0.28905 1.467296287e-05 7.26281954e-06 252 
0.28935 9.625247144e-06 4.950370568e-06 234 
0.28965 3.195547539e-05 1.251091949e-05 229 
0.28995 1.308503733e-05 6.817456053e-06 213 
0.29025 2.41666729e-05 1.014290297e-05 199 
0.29055 1.679127463e-05 8.034695006e-06 203 
0.29085 1.431070721e-05 7.28364612e-06 221 
0.29115 2.985539491e-05 1.174046483e-05 238 
0.29145 1.363254013e-05 7.11195405e-06 221 
0.29175 1.299853177e-05 7.206283092e-06 213 
0.29205 3.402177926e-05 1.431088294e-05 238 
0.29235 7.66069261e-06 3.523879134e-06 236 
0.29265 2.628026315e-05 1.152133486e-05 216 
0.29295 2.153629482e-05 1.057863778e-05 206 
0.29325 3.107529388e-05 1.266271941e-05 232 
0.29355 3.938364446e-05 1.36471051e-05 199 
0.29385 8.884081396e-06 6.589395877e-06 223 
0.29415 1.80254585e-05 9.214927652e-06 231 
0.29445 4.726076022e-05 1.600589932e-05 243 
0.29475 1.745907326e-05 7.805364081e-06 223 
0.29505 2.454136964e-05 1.061755118e-05 255 
0.29535 8.051360822e-06 3.626758576e-06 219 
0.29565 2.92162867e-05 1.294804357e-05 199 
0.29595 1.173498688e-05 8.623286572e-06 231 
0.29625 1.792994238e-05 8.85616831e-06 231 
0.29655 2.032610748e-05 1.117319372e-05 225 
0.29685 3.777582305e-05 1.46757196e-05 226 
0.29715 2.756657569e-05 1.225829528e-05 199 
0.29745 1.110456674e-05 7.908723231e-06 218 
0.29775 1.965111262e-05 1.078784984e-05 240 
0.29805 3.189975107e-05 1.349188897e-05 245 
0.29835 1.842639271e-05 1.052124058e-05 217 
0.29865 1.871719063e-05 9.091757663e-06 224 
0.29895 2.492249581e-05 1.087871251e-05 213 
0.29925 1.950060062e-05 1.058726306e-05 223 
0.29955 4.372507895e-06 3.081418402e-06 214 
0.29985 1.209560082e-05 7.157278452e-06 208 
